Timestamp,ArrivalTime,TotalTime(ms),WaitTime(ms),DecodeTime(ms),InferTime(ms),ServerComputeTime(ms),TotalServer(ms),Total
1759168050.898914,1759168051.1519182,308.79926681518555,13.594627380371094,0.2357959747314453,33.8139533996582,34.04974937438965,47.88351058959961,51.32699012756348
1759168051.2084107,1759168051.2179945,42.29116439819336,3.7009716033935547,0.25916099548339844,21.929025650024414,22.188186645507812,26.17788314819336,27.806997299194336
1759168051.2509227,1759168051.2603006,36.1783504486084,2.498149871826172,0.25010108947753906,21.55470848083496,21.8048095703125,24.552345275878906,26.975393295288086
1759168051.288098,1759168051.2990294,42.052507400512695,2.897500991821289,0.24580955505371094,21.65508270263672,21.90089225769043,25.044679641723633,26.26514434814453
1759168051.3304026,1759168051.338651,36.904096603393555,2.4864673614501953,0.24437904357910156,21.353721618652344,21.598100662231445,24.328231811523438,27.068614959716797
1759168051.3678691,1759168051.375345,36.582231521606445,4.24957275390625,0.24127960205078125,21.48580551147461,21.72708511352539,26.10158920288086,27.213096618652344
1759168051.4059682,1759168051.4072928,44.882774353027344,11.224985122680664,0.2429485321044922,21.361351013183594,21.604299545288086,32.86862373352051,33.59842300415039
1759168051.4509954,1759168051.4566967,34.05356407165527,0.6566047668457031,0.2472400665283203,21.420001983642578,21.6672420501709,22.599220275878906,24.24311637878418
1759168051.4851882,1759168051.4864867,43.0295467376709,9.71674919128418,0.2391338348388672,21.567821502685547,21.806955337524414,31.56447410583496,32.302141189575195
1759168051.5284023,1759168051.5350177,35.9644889831543,0.13828277587890625,0.2434253692626953,25.09593963623047,25.339365005493164,25.8176326751709,27.04310417175293
1759168051.56459,1759168051.5740168,38.45405578613281,3.652811050415039,0.2510547637939453,21.997928619384766,22.24898338317871,26.112079620361328,27.241945266723633
1759168051.604518,1759168051.6058147,40.43984413146973,11.232376098632812,0.35572052001953125,21.57115936279297,21.9268798828125,33.19668769836426,33.922433853149414
1759168051.6450994,1759168051.6519823,40.89713096618652,4.044055938720703,0.2429485321044922,21.535158157348633,21.778106689453125,25.995254516601562,28.23925018310547
1759168051.6861377,1759168051.68749,33.521175384521484,7.348060607910156,0.24080276489257812,21.92234992980957,22.16315269470215,29.63995933532715,30.492067337036133
1759168051.7201643,1759168051.7284377,47.07837104797363,5.498170852661133,0.24962425231933594,21.467924118041992,21.717548370361328,27.340412139892578,28.584718704223633
1759168051.7673843,1759168051.7720788,33.66279602050781,0.1556873321533203,0.25272369384765625,21.43549919128418,21.688222885131836,22.148609161376953,23.796558380126953
1759168051.8011804,1759168051.802481,34.90042686462402,8.402585983276367,0.24247169494628906,21.523714065551758,21.766185760498047,30.20930290222168,30.95269203186035
1759168051.8362272,1759168051.8466554,44.70539093017578,2.435922622680664,0.2422332763671875,21.48914337158203,21.73137664794922,24.335861206054688,25.355815887451172
1759168051.8811233,1759168051.8870656,32.09209442138672,0.2510547637939453,0.24580955505371094,21.451234817504883,21.697044372558594,22.2170352935791,23.806333541870117
1759168051.9133966,1759168051.9247892,41.20278358459473,1.5320777893066406,0.2467632293701172,21.476268768310547,21.723031997680664,23.49543571472168,24.57261085510254
1759168051.9547386,1759168051.9560404,45.48954963684082,8.9874267578125,0.24580955505371094,21.56853675842285,21.814346313476562,30.84588050842285,31.574487686157227
1759168052.0007148,1759168052.0036533,35.834312438964844,0.019311904907226562,0.240325927734375,21.56376838684082,21.804094314575195,22.16815948486328,23.581981658935547
1759168052.0366883,1759168052.0425162,31.566143035888672,0.156402587890625,0.2357959747314453,21.453142166137695,21.68893814086914,22.155284881591797,23.448467254638672
1759168052.0683925,1759168052.079231,42.55557060241699,2.2306442260742188,0.24843215942382812,21.446704864501953,21.69513702392578,24.201631546020508,25.341033935546875
1759168052.1110303,1759168052.1148703,34.44790840148926,4.975557327270508,0.23889541625976562,21.4383602142334,21.677255630493164,26.822566986083984,27.83799171447754
1759168052.145633,1759168052.1469414,48.476457595825195,11.64555549621582,0.2505779266357422,21.42190933227539,21.672487258911133,33.36215019226074,34.11412239074707
1759168052.1942527,1759168052.1972601,33.51855278015137,0.018596649169921875,0.24318695068359375,21.44145965576172,21.684646606445312,22.04418182373047,23.409605026245117
1759168052.2279065,1759168052.2334843,33.49041938781738,2.2618770599365234,0.23937225341796875,21.547555923461914,21.786928176879883,24.283647537231445,25.462627410888672
1759168052.261603,1759168052.2680812,38.82193565368652,6.377458572387695,0.25153160095214844,21.52705192565918,21.778583526611328,28.328895568847656,29.48594093322754
1759168052.3069403,1759168052.3124678,31.606674194335938,0.062465667724609375,0.23603439331054688,21.289825439453125,21.525859832763672,21.929264068603516,23.67854118347168
1759168052.3386874,1759168052.3400333,47.15132713317871,11.211395263671875,0.24557113647460938,21.597623825073242,21.84319496154785,33.17379951477051,34.0120792388916
1759168052.385977,1759168052.3896456,32.47356414794922,0.042438507080078125,0.25010108947753906,21.329641342163086,21.579742431640625,21.97265625,23.98967742919922
1759168052.418605,1759168052.4199626,43.07293891906738,8.519649505615234,0.24771690368652344,21.637439727783203,21.885156631469727,30.52687644958496,31.41927719116211
1759168052.4618177,1759168052.4670146,32.38105773925781,0.1552104949951172,0.23937225341796875,21.420717239379883,21.66008949279785,22.118568420410156,23.67091178894043
1759168052.4955947,1759168052.5039113,43.10154914855957,1.5995502471923828,0.2396106719970703,21.484851837158203,21.724462509155273,23.536205291748047,24.846792221069336
1759168052.5388327,1759168052.5441527,29.291152954101562,0.1518726348876953,0.25010108947753906,21.493196487426758,21.743297576904297,22.195100784301758,23.491382598876953
1759168052.5682654,1759168052.5772746,41.52035713195801,5.326986312866211,0.23746490478515625,21.491527557373047,21.728992462158203,27.17876434326172,28.018712997436523
1759168052.610846,1759168052.619925,34.82675552368164,1.367330551147461,0.244140625,21.46458625793457,21.70872688293457,23.32139015197754,24.79100227355957
1759168052.6480901,1759168052.6583512,37.23001480102539,1.4328956604003906,0.2548694610595703,21.49057388305664,21.74544334411621,23.42367172241211,24.434566497802734
1759168052.6855235,1759168052.6974351,39.04604911804199,0.8440017700195312,0.25916099548339844,21.47054672241211,21.729707717895508,22.817373275756836,24.689912796020508
1759168052.7264822,1759168052.7333558,44.73471641540527,3.1118392944335938,0.24580955505371094,21.570920944213867,21.816730499267578,25.09450912475586,26.05271339416504
1759168052.7713528,1759168052.7739282,33.496856689453125,0.7569789886474609,0.2422332763671875,21.394729614257812,21.636962890625,22.676944732666016,24.387836456298828
1759168052.805008,1759168052.81218,32.213449478149414,0.8344650268554688,0.2396106719970703,21.468400955200195,21.708011627197266,22.843599319458008,24.01447296142578
1759168052.8373647,1759168052.8427362,48.59757423400879,9.287118911743164,0.23508071899414062,21.49057388305664,21.72565460205078,31.05759620666504,31.99481964111328
1759168052.886101,1759168052.8906927,28.83601188659668,0.019788742065429688,0.23555755615234375,21.531105041503906,21.76666259765625,22.13287353515625,23.508548736572266
1759168052.9150808,1759168052.9169152,46.362876892089844,12.639045715332031,0.24056434631347656,21.587133407592773,21.82769775390625,34.503936767578125,35.73346138000488
1759168052.9615452,1759168052.9683313,32.358407974243164,0.018835067749023438,0.2448558807373047,21.65675163269043,21.901607513427734,22.26710319519043,23.970365524291992
1759168052.9945717,1759168052.99591,47.52683639526367,11.494874954223633,0.24175643920898438,21.54994010925293,21.791696548461914,33.324480056762695,34.04855728149414
1759168053.0429668,1759168053.0442739,33.43319892883301,1.4872550964355469,0.2391338348388672,21.463394165039062,21.70252799987793,23.50020408630371,24.788618087768555
1759168053.0766115,1759168053.0846958,39.73793983459473,0.02193450927734375,0.24771690368652344,21.48747444152832,21.735191345214844,22.095203399658203,23.940563201904297
1759168053.1176736,1759168053.1217248,33.46562385559082,1.3248920440673828,0.25343894958496094,21.335840225219727,21.589279174804688,23.114681243896484,24.349212646484375
1759168053.15496,1759168053.1608655,30.942201614379883,0.6659030914306641,0.2391338348388672,21.502017974853516,21.741151809692383,22.68528938293457,24.22499656677246
1759168053.186001,1759168053.193891,44.69466209411621,9.776830673217773,0.24628639221191406,22.408246994018555,22.65453338623047,32.605648040771484,33.720970153808594
1759168053.2308385,1759168053.2321696,47.10221290588379,10.75601577758789,0.27489662170410156,21.526098251342773,21.800994873046875,32.678842544555664,33.51569175720215
1759168053.2786374,1759168053.2804754,37.770748138427734,0.8668899536132812,0.24509429931640625,21.405935287475586,21.651029586791992,22.79186248779297,24.176597595214844
1759168053.3168635,1759168053.3186212,36.388397216796875,1.596212387084961,0.23984909057617188,21.311044692993164,21.550893783569336,23.388385772705078,24.724245071411133
1759168053.353393,1759168053.358407,32.20868110656738,0.16570091247558594,0.2453327178955078,21.48890495300293,21.734237670898438,22.215604782104492,23.622512817382812
1759168053.385948,1759168053.3957553,44.611215591430664,1.5797615051269531,0.2472400665283203,21.458148956298828,21.70538902282715,23.525476455688477,24.70564842224121
1759168053.430709,1759168053.435197,28.927326202392578,0.24771690368652344,0.24318695068359375,21.427154541015625,21.67034149169922,22.223949432373047,23.702144622802734
1759168053.4597795,1759168053.4645662,40.442466735839844,9.747505187988281,0.24247169494628906,21.613359451293945,21.855831146240234,31.72469139099121,32.82928466796875
1759168053.5009015,1759168053.5115867,38.47503662109375,0.8409023284912109,0.24580955505371094,21.295785903930664,21.541595458984375,22.624492645263672,24.050474166870117
1759168053.5395174,1759168053.5408022,48.07400703430176,10.825872421264648,0.23865699768066406,21.500110626220703,21.738767623901367,32.608747482299805,33.37907791137695
1759168053.5886512,1759168053.5899956,30.893325805664062,0.0209808349609375,0.25582313537597656,21.4996337890625,21.755456924438477,22.11785316467285,23.520708084106445
1759168053.6196826,1759168053.6266885,34.95621681213379,1.8219947814941406,0.24390220642089844,21.513938903808594,21.757841110229492,23.781776428222656,24.94525909423828
1759168053.656544,1759168053.6578279,44.48366165161133,8.85629653930664,0.24175643920898438,21.518707275390625,21.76046371459961,30.660152435302734,31.401395797729492
1759168053.7011685,1759168053.7056127,34.468889236450195,0.021696090698242188,0.24271011352539062,21.66295051574707,21.90566062927246,22.27020263671875,23.71954917907715
1759168053.7358732,1759168053.737161,40.06648063659668,7.014274597167969,0.23865699768066406,21.504878997802734,21.7435359954834,28.795957565307617,29.502391815185547
1759168053.776082,1759168053.7830682,35.25686264038086,0.04482269287109375,0.24938583374023438,21.370649337768555,21.62003517150879,22.002696990966797,23.946523666381836
1759168053.8114784,1759168053.820723,37.08148002624512,0.63323974609375,0.24938583374023438,21.633148193359375,21.88253402709961,22.79186248779297,24.251222610473633
1759168053.8520598,1759168053.8536918,37.79339790344238,6.234645843505859,0.244140625,21.328210830688477,21.572351455688477,27.984142303466797,29.034852981567383
1759168053.891055,1759168053.894003,43.47562789916992,4.617929458618164,0.25177001953125,21.53754234313965,21.7893123626709,26.62515640258789,27.943849563598633
1759168053.9349904,1759168053.937182,27.545928955078125,0.042438507080078125,0.24247169494628906,21.569013595581055,21.811485290527344,22.19367027282715,23.569345474243164
1759168053.9639661,1759168053.965287,45.33815383911133,9.934186935424805,0.24247169494628906,21.422624588012695,21.665096282958984,31.638145446777344,32.35507011413574
1759168054.0093985,1759168054.0142636,33.02121162414551,0.025272369384765625,0.2486705780029297,21.51012420654297,21.7587947845459,22.119760513305664,23.91672134399414
1759168054.0449643,1759168054.0464728,41.26381874084473,6.087303161621094,0.24056434631347656,21.455049514770508,21.695613861083984,27.90379524230957,28.729677200317383
1759168054.0863698,1759168054.0876837,41.36514663696289,3.748655319213867,0.247955322265625,21.590709686279297,21.838665008544922,25.796175003051758,26.830673217773438
1759168054.1278841,1759168054.1292224,27.990102767944336,1.070261001586914,0.2491474151611328,21.654129028320312,21.903276443481445,23.242950439453125,24.471044540405273
1759168054.1576405,1759168054.1675444,37.209510803222656,0.8933544158935547,0.2460479736328125,21.382808685302734,21.628856658935547,22.766828536987305,24.63674545288086
1759168054.195402,1759168054.2048404,37.752389907836914,2.0608901977539062,0.2384185791015625,21.463871002197266,21.702289581298828,24.041414260864258,25.297164916992188
1759168054.234069,1759168054.2426822,45.76301574707031,3.0312538146972656,0.2503395080566406,21.55327796936035,21.803617477416992,25.07495880126953,26.75175666809082
1759168054.2799785,1759168054.2843294,31.44359588623047,0.019550323486328125,0.24247169494628906,21.712064743041992,21.95453643798828,22.3238468170166,23.9715576171875
1759168054.3126612,1759168054.3139608,42.050838470458984,9.342193603515625,0.2574920654296875,21.60501480102539,21.862506866455078,31.325817108154297,32.16218948364258
1759168054.3558543,1759168054.3574908,38.022518157958984,4.525184631347656,0.24008750915527344,21.498680114746094,21.738767623901367,26.473045349121094,27.67467498779297
1759168054.3943222,1759168054.400269,35.20488739013672,0.7042884826660156,0.23984909057617188,21.609067916870117,21.84891700744629,22.857189178466797,24.22809600830078
1759168054.4313524,1759168054.4389012,41.63098335266113,0.5512237548828125,0.2453327178955078,21.51775360107422,21.763086318969727,22.63164520263672,24.431943893432617
1759168054.4731202,1759168054.4778976,30.377626419067383,0.133514404296875,0.2460479736328125,21.361827850341797,21.60787582397461,22.044658660888672,24.134159088134766
1759168054.5036395,1759168054.510711,42.30475425720215,5.951642990112305,0.2384185791015625,21.437406539916992,21.675825119018555,27.802228927612305,29.086589813232422
1759168054.546083,1759168054.5541117,33.36381912231445,0.8685588836669922,0.24127960205078125,21.53158187866211,21.77286148071289,22.915363311767578,24.31488037109375
1759168054.5796034,1759168054.5829096,44.38352584838867,10.455608367919922,0.2422332763671875,21.564245223999023,21.80647850036621,32.305240631103516,33.05220603942871
1759168054.624732,1759168054.6262496,37.41884231567383,5.690336227416992,0.2372264862060547,21.605968475341797,21.84319496154785,27.740478515625,28.79500389099121
1759168054.663245,1759168054.6655493,41.93305969238281,4.937410354614258,0.2586841583251953,21.538972854614258,21.797657012939453,26.77631378173828,28.526782989501953
1759168054.705317,1759168054.7090907,29.625415802001953,0.0209808349609375,0.23698806762695312,21.326303482055664,21.563291549682617,21.91925048828125,23.731708526611328
1759168054.735084,1759168054.736429,45.59922218322754,11.200666427612305,0.2429485321044922,21.525144577026367,21.76809310913086,33.0963134765625,33.9205265045166
1759168054.7808208,1759168054.7860234,34.08527374267578,0.19288063049316406,0.23746490478515625,21.528244018554688,21.765708923339844,22.26543426513672,23.693084716796875
1759168054.8150485,1759168054.8163767,46.30541801452637,8.529901504516602,0.24127960205078125,23.63109588623047,23.87237548828125,32.6845645904541,33.69283676147461
1759168054.8624675,1759168054.866564,29.14571762084961,0.0209808349609375,0.26702880859375,21.63982391357422,21.90685272216797,22.26734161376953,23.465633392333984
1759168054.8926342,1759168054.90145,42.85144805908203,3.7446022033691406,0.23794174194335938,21.574020385742188,21.811962127685547,25.759220123291016,27.082204818725586
1759168054.9383643,1759168054.9434972,36.57817840576172,0.25200843811035156,0.2472400665283203,21.42810821533203,21.67534828186035,22.20439910888672,24.196147918701172
1759168054.97508,1759168054.9805164,31.785249710083008,1.184225082397461,0.23865699768066406,21.497726440429688,21.73638343811035,23.196697235107422,24.725675582885742
1759168055.010817,1759168055.0124116,40.36235809326172,7.297754287719727,0.23627281188964844,21.61693572998047,21.853208541870117,29.31976318359375,30.359745025634766
1759168055.051317,1759168055.0574791,32.919883728027344,0.8668899536132812,0.24628639221191406,21.524667739868164,21.770954132080078,22.91274070739746,24.087190628051758
1759168055.086883,1759168055.0892386,41.21899604797363,7.316350936889648,0.2434253692626953,21.275758743286133,21.519184112548828,28.961181640625,30.008316040039062
1759168055.1282372,1759168055.134529,30.704498291015625,0.14138221740722656,0.24557113647460938,21.48747444152832,21.73304557800293,22.19104766845703,23.71072769165039
1759168055.1591392,1759168055.1678188,44.42095756530762,5.757570266723633,0.23937225341796875,21.445512771606445,21.684885025024414,27.610301971435547,28.62405776977539
1759168055.203707,1759168055.205347,37.03808784484863,6.541252136230469,0.2396106719970703,21.524667739868164,21.764278411865234,28.426170349121094,29.209375381469727
1759168055.2418532,1759168055.247547,39.19172286987305,2.812623977661133,0.2448558807373047,21.589994430541992,21.834850311279297,24.89161491394043,26.20077133178711
1759168055.281231,1759168055.2890506,34.55781936645508,0.021696090698242188,0.23865699768066406,21.614789962768555,21.85344696044922,22.220373153686523,23.649215698242188
1759168055.3158836,1759168055.3171988,47.54233360290527,9.938955307006836,0.247955322265625,21.44598960876465,21.693944931030273,31.670331954956055,32.38272666931152
1759168055.3636482,1759168055.3652866,29.13355827331543,0.037670135498046875,0.247955322265625,21.442890167236328,21.690845489501953,22.072553634643555,23.285865783691406
1759168055.3943205,1759168055.4022708,39.437055587768555,1.786947250366211,0.24390220642089844,21.289348602294922,21.53325080871582,23.554563522338867,24.888038635253906
1759168055.4338923,1759168055.4399416,39.08729553222656,2.5136470794677734,0.2460479736328125,21.635055541992188,21.881103515625,24.642229080200195,26.178836822509766
1759168055.4731176,1759168055.4796112,40.31848907470703,1.6422271728515625,0.240325927734375,21.530866622924805,21.77119255065918,23.621559143066406,26.393413543701172
1759168055.5144684,1759168055.5161026,36.18168830871582,3.4644603729248047,0.24890899658203125,21.457672119140625,21.706581115722656,25.38156509399414,26.404380798339844
1759168055.5510497,1759168055.5576453,36.479949951171875,0.5269050598144531,0.24080276489257812,21.524906158447266,21.765708923339844,22.598743438720703,23.938894271850586
1759168055.5880802,1759168055.5963283,40.55452346801758,0.13566017150878906,0.2472400665283203,21.445274353027344,21.692514419555664,22.133827209472656,23.49233627319336
1759168055.6287804,1759168055.6300776,34.7902774810791,5.307674407958984,0.2529621124267578,21.48294448852539,21.73590660095215,27.251482009887695,28.295516967773438
1759168055.664991,1759168055.7816381,149.0919589996338,5.580425262451172,0.2551078796386719,21.51632308959961,21.77143096923828,27.600526809692383,52.03723907470703
1759168055.8162255,1759168055.8176503,49.811601638793945,10.565042495727539,0.2548694610595703,21.537303924560547,21.792173385620117,32.39917755126953,33.132076263427734
1759168055.8661423,1759168055.868244,27.668237686157227,0.020742416381835938,0.26535987854003906,21.422147750854492,21.68750762939453,22.043466567993164,23.589134216308594
1759168055.8982317,1759168055.9006712,44.241905212402344,5.905628204345703,0.23651123046875,21.35014533996582,21.58665657043457,27.612924575805664,28.59973907470703
1759168055.9426975,1759168055.944358,28.403759002685547,0.6575584411621094,0.24199485778808594,21.628141403198242,21.870136260986328,22.834300994873047,24.28746223449707
1759168055.974787,1759168055.9763772,42.29021072387695,6.849050521850586,0.2422332763671875,21.328449249267578,21.570682525634766,28.587818145751953,29.63733673095703
1759168056.0172591,1759168056.021878,32.38105773925781,0.021219253540039062,0.24199485778808594,21.550655364990234,21.79265022277832,22.15123176574707,23.57769012451172
1759168056.049824,1759168056.056291,42.59467124938965,4.108428955078125,0.24843215942382812,21.481752395629883,21.73018455505371,26.006460189819336,26.984691619873047
1759168056.0925596,1759168056.0969641,36.65447235107422,1.9083023071289062,0.240325927734375,21.449565887451172,21.689891815185547,23.851633071899414,26.782512664794922
1759168056.1293542,1759168056.13508,40.609121322631836,2.3500919342041016,0.2472400665283203,21.526575088500977,21.773815155029297,24.36208724975586,25.666236877441406
1759168056.1700997,1759168056.1759672,32.33671188354492,0.02193450927734375,0.24008750915527344,21.627426147460938,21.86751365661621,22.22752571105957,23.633956909179688
1759168056.205935,1759168056.2075498,41.78643226623535,6.543159484863281,0.24127960205078125,21.42167091369629,21.66295051574707,28.372526168823242,29.454469680786133
1759168056.2478576,1759168056.2531068,31.192779541015625,0.022411346435546875,0.23984909057617188,21.58188819885254,21.82173728942871,22.173166275024414,23.992061614990234
1759168056.2796803,1759168056.2907062,38.72203826904297,0.3962516784667969,0.2410411834716797,21.413803100585938,21.654844284057617,22.287845611572266,25.343656539916992
1759168056.3185527,1759168056.3198457,44.962167739868164,9.502172470092773,0.2486705780029297,22.177457809448242,22.426128387451172,32.13667869567871,33.115386962890625
1759168056.3636563,1759168056.3683844,31.577110290527344,0.15282630920410156,0.26106834411621094,21.573781967163086,21.834850311279297,22.295475006103516,23.64516258239746
1759168056.3988693,1759168056.4004707,38.953304290771484,5.820035934448242,0.24437904357910156,21.355390548706055,21.599769592285156,27.598142623901367,28.627634048461914
1759168056.4379637,1759168056.4439795,33.98609161376953,0.6804466247558594,0.2429485321044922,21.467924118041992,21.710872650146484,22.66860008239746,24.221181869506836
1759168056.4720922,1759168056.4801805,45.711517333984375,3.1998157501220703,0.2453327178955078,21.558284759521484,21.803617477416992,25.204896926879883,26.226282119750977
1759168056.5179434,1759168056.521172,27.431011199951172,0.03337860107421875,0.23818016052246094,21.323680877685547,21.561861038208008,21.932363510131836,23.597240447998047
1759168056.5455277,1759168056.5510068,44.19589042663574,8.718729019165039,0.240325927734375,21.457195281982422,21.697521209716797,30.45344352722168,32.27996826171875
1759168056.5904434,1759168056.5967638,31.409025192260742,0.5543231964111328,0.247955322265625,21.410226821899414,21.65818214416504,22.509098052978516,24.326801300048828
1759168056.6219938,1759168056.630339,39.47281837463379,5.253076553344727,0.24080276489257812,21.642208099365234,21.883010864257812,27.26602554321289,28.124332427978516
1759168056.6615782,1759168056.6715775,43.5948371887207,2.4492740631103516,0.29754638671875,21.607398986816406,21.904945373535156,24.52373504638672,25.509119033813477
1759168056.705313,1759168056.7115586,38.28597068786621,1.0008811950683594,0.23984909057617188,21.41404151916504,21.65389060974121,22.92156219482422,24.528026580810547
1759168056.7437398,1759168056.7486835,34.3170166015625,2.4259090423583984,0.23865699768066406,21.543025970458984,21.78168296813965,24.448156356811523,25.99930763244629
1759168056.7781503,1759168056.7863255,39.19386863708496,3.3502578735351562,0.2410411834716797,21.471738815307617,21.712779998779297,25.272607803344727,27.24289894104004
1759168056.8180752,1759168056.8269591,33.106327056884766,0.15854835510253906,0.2396106719970703,21.436214447021484,21.675825119018555,22.134065628051758,23.910045623779297
1759168056.851278,1759168056.852633,49.070119857788086,12.537717819213867,0.24008750915527344,21.475791931152344,21.715879440307617,34.296274185180664,35.012006759643555
1759168056.90134,1759168056.90317,27.399063110351562,0.050067901611328125,0.24008750915527344,21.57425880432129,21.814346313476562,22.197484970092773,23.493528366088867
1759168056.9309196,1759168056.9388144,41.77522659301758,1.8355846405029297,0.2410411834716797,21.342039108276367,21.583080291748047,23.538589477539062,24.901151657104492
1759168056.9728365,1759168056.9781854,32.996416091918945,0.1304149627685547,0.2472400665283203,21.462202072143555,21.709442138671875,22.152423858642578,23.960590362548828
1759168057.005974,1759168057.007279,46.82636260986328,9.611845016479492,0.24056434631347656,21.557331085205078,21.797895431518555,31.533479690551758,32.34457969665527
1759168057.0530052,1759168057.055378,32.17935562133789,0.021219253540039062,0.24557113647460938,21.628856658935547,21.874427795410156,22.242307662963867,23.619651794433594
1759168057.0893734,1759168057.091728,34.0118408203125,1.9872188568115234,0.23674964904785156,21.357297897338867,21.59404754638672,23.85544776916504,25.239944458007812
1759168057.1252568,1759168057.1291578,34.937381744384766,2.7065277099609375,0.23746490478515625,21.579980850219727,21.817445755004883,24.722576141357422,25.912046432495117
1759168057.1618702,1759168057.1633985,42.075395584106445,7.165670394897461,0.23555755615234375,21.43406867980957,21.669626235961914,29.00218963623047,30.07364273071289
1759168057.2046454,1759168057.2064905,28.894662857055664,2.373933792114258,0.23794174194335938,21.46601676940918,21.70395851135254,24.315595626831055,25.597095489501953
1759168057.2359118,1759168057.2372358,44.71325874328613,9.78708267211914,0.2377033233642578,21.55327796936035,21.79098129272461,31.700611114501953,32.51504898071289
1759168057.2811415,1759168057.2855194,32.95469284057617,0.0209808349609375,0.24056434631347656,21.67224884033203,21.912813186645508,22.26877212524414,23.651599884033203
1759168057.316823,1759168057.320672,38.01441192626953,2.943754196166992,0.240325927734375,21.72231674194336,21.962642669677734,25.10690689086914,26.40509605407715
1759168057.3551702,1759168057.361694,32.27543830871582,0.15091896057128906,0.240325927734375,21.517276763916016,21.75760269165039,22.205829620361328,23.710250854492188
1759168057.3907418,1759168057.3923883,41.27168655395508,8.08572769165039,0.24628639221191406,21.346092224121094,21.592378616333008,29.8004150390625,30.606508255004883
1759168057.4321516,1759168057.4384217,31.781435012817383,0.24700164794921875,0.2434253692626953,21.427392959594727,21.670818328857422,22.196292877197266,23.523330688476562
1759168057.466556,1759168057.4756773,35.42041778564453,0.3657341003417969,0.2377033233642578,21.316051483154297,21.553754806518555,22.190332412719727,23.899078369140625
1759168057.5040865,1759168057.5127594,37.22190856933594,1.3704299926757812,0.2396106719970703,21.425485610961914,21.665096282958984,23.273944854736328,24.595975875854492
1759168057.5414033,1759168057.548574,37.84918785095215,4.235744476318359,0.24271011352539062,21.53468132019043,21.77739143371582,26.182174682617188,28.095483779907227
1759168057.5822082,1759168057.5899305,32.143354415893555,0.3345012664794922,0.2503395080566406,21.464109420776367,21.714448928833008,22.285938262939453,24.054527282714844
1759168057.616557,1759168057.6281705,35.9644889831543,0.15544891357421875,0.24652481079101562,21.479129791259766,21.72565460205078,22.177934646606445,24.101972579956055
1759168057.6527202,1759168057.6608355,44.21424865722656,5.849361419677734,0.24008750915527344,21.509885787963867,21.74997329711914,27.731657028198242,28.563499450683594
1759168057.6970735,1759168057.7044613,35.547494888305664,0.2384185791015625,0.240325927734375,21.47817611694336,21.718502044677734,22.22752571105957,23.600101470947266
1759168057.7340558,1759168057.7407498,40.215253829956055,2.408742904663086,0.24080276489257812,21.54064178466797,21.781444549560547,24.427413940429688,25.731801986694336
1759168057.7744064,1759168057.7769809,32.79614448547363,4.629373550415039,0.23746490478515625,21.55303955078125,21.790504455566406,26.598691940307617,27.565956115722656
1759168057.8103895,1759168057.8118157,39.42084312438965,8.050918579101562,0.2429485321044922,21.458864212036133,21.701812744140625,29.871225357055664,30.691146850585938
1759168057.851646,1759168057.8560622,31.123876571655273,2.4144649505615234,0.244140625,21.437883377075195,21.682024002075195,24.362802505493164,25.811433792114258
1759168057.8829331,1759168057.8842454,40.502309799194336,12.616872787475586,0.240325927734375,21.592140197753906,21.83246612548828,34.49106216430664,35.19320487976074
1759168057.9278939,1759168057.9295073,31.065702438354492,5.269527435302734,0.23555755615234375,21.36969566345215,21.605253219604492,27.047157287597656,28.092622756958008
1759168057.9594626,1759168057.9681811,47.56927490234375,4.810810089111328,0.24008750915527344,21.5301513671875,21.770238876342773,26.74698829650879,27.788639068603516
1759168058.0071743,1759168058.0109775,28.789043426513672,0.015974044799804688,0.23865699768066406,21.54397964477539,21.782636642456055,22.13120460510254,23.479223251342773
1759168058.0365841,1759168058.0470185,40.438175201416016,2.1066665649414062,0.24127960205078125,21.563291549682617,21.8045711517334,24.147987365722656,25.421857833862305
1759168058.077157,1759168058.0784266,36.83114051818848,9.454011917114258,0.23889541625976562,21.493196487426758,21.732091903686523,31.228065490722656,31.931638717651367
1759168058.118074,1759168058.1236942,33.7061882019043,1.9342899322509766,0.23889541625976562,21.273136138916016,21.51203155517578,23.646116256713867,24.768352508544922
1759168058.1525373,1759168058.1542063,39.127349853515625,9.694099426269531,0.2396106719970703,21.599769592285156,21.839380264282227,31.656503677368164,32.46927261352539
1759168058.1922472,1759168058.2008011,34.375905990600586,0.7586479187011719,0.2391338348388672,21.539688110351562,21.77882194519043,22.817134857177734,24.34682846069336
1759168058.2271912,1759168058.2375288,43.20883750915527,1.9321441650390625,0.2472400665283203,21.518707275390625,21.765947341918945,23.903369903564453,24.985074996948242
1759168058.2705626,1759168058.2778232,34.31892395019531,0.13494491577148438,0.23603439331054688,21.50726318359375,21.743297576904297,22.18008041381836,23.502826690673828
1759168058.3050182,1759168058.3106823,37.2774600982666,6.196737289428711,0.23746490478515625,21.462440490722656,21.699905395507812,28.064489364624023,29.04677391052246
1759168058.3461494,1759168058.3477674,42.121171951293945,7.159233093261719,0.2422332763671875,21.30603790283203,21.54827117919922,28.87725830078125,29.926776885986328
1759168058.3884146,1759168058.3897276,39.80112075805664,3.4704208374023438,0.2448558807373047,21.460533142089844,21.70538902282715,25.383472442626953,26.29685401916504
1759168058.4283533,1759168058.4312258,28.41925621032715,0.04076957702636719,0.24509429931640625,21.52538299560547,21.770477294921875,22.142887115478516,23.392438888549805
1759168058.4569588,1759168058.4641528,37.03141212463379,5.3195953369140625,0.24437904357910156,21.589279174804688,21.83365821838379,27.36353874206543,28.396129608154297
1759168058.4944365,1759168058.5043116,38.84315490722656,3.5266876220703125,0.2422332763671875,21.61431312561035,21.85654640197754,25.55227279663086,26.528120040893555
1759168058.5402944,1759168058.5459356,35.18533706665039,0.12803077697753906,0.23436546325683594,21.368741989135742,21.603107452392578,22.029876708984375,23.877620697021484
1759168058.5756235,1759168058.5836737,35.568952560424805,0.22339820861816406,0.24175643920898438,21.496295928955078,21.738052368164062,22.23682403564453,23.667573928833008
1759168058.6113296,1759168058.612613,46.21624946594238,9.516000747680664,0.24271011352539062,21.525859832763672,21.768569946289062,31.327247619628906,32.042503356933594
1759168058.6576827,1759168058.6590793,33.60104560852051,1.142740249633789,0.23937225341796875,21.48127555847168,21.72064781188965,23.099899291992188,24.348020553588867
1759168058.691425,1759168058.6972055,34.81745719909668,1.1417865753173828,0.24580955505371094,21.47054672241211,21.71635627746582,23.101329803466797,24.14417266845703
1759168058.7263815,1759168058.732719,38.63668441772461,4.051446914672852,0.23746490478515625,21.6522216796875,21.889686584472656,26.143550872802734,27.86564826965332
1759168058.7704604,1759168058.774506,32.74178504943848,0.23627281188964844,0.2377033233642578,21.390676498413086,21.628379821777344,22.144794464111328,23.98824691772461
1759168058.803412,1759168058.8122258,34.32583808898926,0.6341934204101562,0.24199485778808594,21.587133407592773,21.82912826538086,22.737503051757812,24.199485778808594
1759168058.837832,1759168058.844968,40.01736640930176,6.064414978027344,0.240325927734375,21.526098251342773,21.76642417907715,27.870893478393555,28.67722511291504
1759168058.88018,1759168058.8816562,43.630361557006836,7.155656814575195,0.2396106719970703,21.297454833984375,21.537065505981445,28.818607330322266,29.650449752807617
1759168058.9239054,1759168058.9270146,29.587268829345703,0.021219253540039062,0.2429485321044922,21.605253219604492,21.848201751708984,22.19986915588379,23.608922958374023
1759168058.9594073,1759168058.9637601,30.945777893066406,1.146554946899414,0.2372264862060547,21.327495574951172,21.564722061157227,22.915363311767578,24.075031280517578
1759168058.9908617,1759168059.0005596,44.547319412231445,3.0481815338134766,0.2391338348388672,21.424293518066406,21.663427352905273,24.958133697509766,26.91817283630371
1759168059.035552,1759168059.0384116,35.651445388793945,2.99835205078125,0.24771690368652344,21.578550338745117,21.82626724243164,25.03204345703125,26.454448699951172
1759168059.0713394,1759168059.0771103,43.28203201293945,2.9299259185791016,0.23937225341796875,21.63219451904297,21.871566772460938,25.040626525878906,26.50284767150879
1759168059.114762,1759168059.117928,27.253150939941406,0.05364418029785156,0.2391338348388672,21.396636962890625,21.635770797729492,22.022247314453125,23.569583892822266
1759168059.1422184,1759168059.1435432,41.30911827087402,12.794256210327148,0.2613067626953125,21.715641021728516,21.976947784423828,34.81101989746094,35.54487228393555
1759168059.184119,1759168059.1924014,43.7312126159668,2.541065216064453,0.244140625,21.533489227294922,21.777629852294922,24.482011795043945,25.433778762817383
1759168059.227988,1759168059.2336378,30.057191848754883,0.1933574676513672,0.23889541625976562,21.446704864501953,21.68560028076172,22.179841995239258,24.018287658691406
1759168059.2581887,1759168059.26658,44.21353340148926,5.759239196777344,0.24890899658203125,21.624088287353516,21.872997283935547,27.75883674621582,28.914451599121094
1759168059.3025498,1759168059.310109,33.36787223815918,0.23365020751953125,0.24747848510742188,21.47054672241211,21.71802520751953,22.21965789794922,23.65589141845703
1759168059.3360565,1759168059.3373306,52.01220512390137,11.362552642822266,0.2415180206298828,24.717330932617188,24.95884895324707,36.379337310791016,37.1546745300293
1759168059.3890023,1759168059.3907983,31.473636627197266,0.017404556274414062,0.2887248992919922,21.767616271972656,22.05634117126465,22.413969039916992,23.671627044677734
1759168059.4206147,1759168059.4283228,34.63006019592285,0.7107257843017578,0.24652481079101562,21.5301513671875,21.776676177978516,22.72343635559082,24.125099182128906
1759168059.4573214,1759168059.467536,37.628889083862305,0.0400543212890625,0.23937225341796875,21.439313888549805,21.678686141967773,22.070646286010742,24.23238754272461
1759168059.4961953,1759168059.4974499,35.29810905456543,8.426427841186523,0.24175643920898438,21.472454071044922,21.714210510253906,30.261754989624023,31.094074249267578
1759168059.5316954,1759168059.5403516,37.62006759643555,3.8008689880371094,0.2372264862060547,21.50130271911621,21.738529205322266,25.70796012878418,26.686668395996094
1759168059.5703971,1759168059.5808644,40.03095626831055,1.1315345764160156,0.23937225341796875,21.394014358520508,21.633386611938477,23.003101348876953,24.6737003326416
1759168059.610567,1759168059.617296,42.108774185180664,3.000020980834961,0.24700164794921875,21.47650718688965,21.723508834838867,24.931907653808594,26.017189025878906
1759168059.652811,1759168059.6585941,30.516386032104492,0.017881393432617188,0.24127960205078125,21.49033546447754,21.73161506652832,22.09019660949707,23.30303192138672
1759168059.6848638,1759168059.686529,48.727989196777344,10.692596435546875,0.23651123046875,21.39425277709961,21.63076400756836,32.44304656982422,33.272504806518555
1759168059.733731,1759168059.7355475,30.61509132385254,0.021457672119140625,0.24938583374023438,21.630287170410156,21.87967300415039,22.24445343017578,23.65422248840332
1759168059.7677422,1759168059.7693422,30.2426815032959,4.320383071899414,0.24080276489257812,21.604299545288086,21.845102310180664,26.366472244262695,27.469158172607422
1759168059.7984927,1759168059.8017936,48.10595512390137,10.325908660888672,0.24509429931640625,21.588563919067383,21.83365821838379,32.28330612182617,33.10823440551758
1759168059.8467379,1759168059.8499367,29.94537353515625,0.04744529724121094,0.2391338348388672,21.331310272216797,21.570444107055664,21.956682205200195,23.623228073120117
1759168059.8771274,1759168059.878382,39.746999740600586,9.861946105957031,0.2384185791015625,21.559953689575195,21.798372268676758,31.69727325439453,32.40776062011719
1759168059.9174695,1759168059.9245186,39.406538009643555,2.819538116455078,0.2541542053222656,21.399974822998047,21.654129028320312,24.7347354888916,25.805234909057617
1759168059.9570122,1759168059.9639227,35.51006317138672,0.9565353393554688,0.23984909057617188,21.529674530029297,21.76952362060547,22.969961166381836,24.686813354492188
1759168059.9926596,1759168059.993917,41.934967041015625,9.042739868164062,0.23889541625976562,21.488189697265625,21.72708511352539,30.811548233032227,31.517505645751953
1759168060.0347311,1759168060.039465,30.976295471191406,1.9495487213134766,0.2486705780029297,21.53944969177246,21.78812026977539,24.010419845581055,25.207042694091797
1759168060.065856,1759168060.073755,49.051523208618164,6.216526031494141,0.23818016052246094,21.668434143066406,21.906614303588867,28.292417526245117,29.25252914428711
1759168060.1150465,1759168060.1180646,32.12857246398926,0.018358230590820312,0.2532005310058594,21.338462829589844,21.591663360595703,21.942138671875,23.29540252685547
1759168060.1473105,1759168060.153872,42.66619682312012,2.740144729614258,0.25177001953125,21.536588668823242,21.788358688354492,24.767637252807617,26.032447814941406
1759168060.190115,1759168060.1940222,28.589248657226562,0.06723403930664062,0.23889541625976562,21.392822265625,21.631717681884766,22.032737731933594,23.818254470825195
1759168060.220153,1759168060.2292147,42.85287857055664,3.2236576080322266,0.2491474151611328,21.470308303833008,21.71945571899414,25.147199630737305,26.230812072753906
1759168060.263143,1759168060.2688508,36.993980407714844,1.985311508178711,0.2410411834716797,21.529197692871094,21.770238876342773,23.998498916625977,25.73561668395996
1759168060.3003263,1759168060.306418,39.92033004760742,2.5746822357177734,0.24056434631347656,21.667957305908203,21.90852165222168,24.691104888916016,26.25441551208496
1759168060.3403866,1759168060.341724,41.81170463562012,5.77235221862793,0.25010108947753906,21.49820327758789,21.74830436706543,27.644634246826172,28.498411178588867
1759168060.383295,1759168060.384814,32.66596794128418,1.4431476593017578,0.23937225341796875,21.598339080810547,21.837711334228516,23.540735244750977,24.922609329223633
1759168060.4195669,1759168060.423071,31.886816024780273,1.0640621185302734,0.24271011352539062,21.28458023071289,21.52729034423828,22.828102111816406,24.155855178833008
1759168060.45161,1759168060.4532647,45.66001892089844,9.145021438598633,0.24747848510742188,21.57759666442871,21.825075149536133,31.09264373779297,31.919240951538086
1759168060.498756,1759168060.5009882,27.950525283813477,0.02002716064453125,0.2391338348388672,21.57282829284668,21.811962127685547,22.16792106628418,23.55217933654785
1759168060.5292382,1759168060.53054,45.363426208496094,8.227109909057617,0.25010108947753906,21.331071853637695,21.581172943115234,29.929399490356445,30.77101707458496
1759168060.5752256,1759168060.577108,30.428647994995117,0.020503997802734375,0.23865699768066406,21.468639373779297,21.70729637145996,22.06254005432129,23.159265518188477
1759168060.6057951,1759168060.6070817,44.90828514099121,8.806467056274414,0.2396106719970703,21.490097045898438,21.729707717895508,30.657052993774414,31.458616256713867
1759168060.6523616,1759168060.6540391,35.51483154296875,0.036716461181640625,0.24175643920898438,21.642446517944336,21.88420295715332,22.25804328918457,23.755311965942383
1759168060.6880162,1759168060.691013,32.38964080810547,1.1112689971923828,0.2422332763671875,21.39878273010254,21.641016006469727,22.986173629760742,24.178504943847656
1759168060.721173,1759168060.722911,36.19575500488281,7.470846176147461,0.24628639221191406,21.54994010925293,21.796226501464844,29.429912567138672,30.530452728271484
1759168060.7575514,1759168060.7588065,35.831451416015625,9.681224822998047,0.25391578674316406,21.529197692871094,21.783113479614258,31.590700149536133,32.37724304199219
1759168060.7962816,1759168060.7976635,42.07611083984375,9.04989242553711,0.24962425231933594,21.461963653564453,21.71158790588379,30.892133712768555,31.709671020507812
1759168060.838494,1759168060.8450663,30.992984771728516,0.14328956604003906,0.2543926239013672,21.459579467773438,21.713972091674805,22.15576171875,24.163246154785156
1759168060.8707047,1759168060.8813484,41.9769287109375,2.0914077758789062,0.24938583374023438,21.568775177001953,21.818161010742188,24.112462997436523,25.06875991821289
1759168060.912817,1759168060.9173183,38.27357292175293,4.588842391967773,0.24008750915527344,21.53301239013672,21.773099899291992,26.566743850708008,27.49490737915039
1759168060.95123,1759168060.9567554,35.43853759765625,3.5440921783447266,0.24628639221191406,21.471738815307617,21.71802520751953,25.463342666625977,26.5500545501709
1759168060.9870949,1759168060.9954207,41.20230674743652,3.1392574310302734,0.2396106719970703,21.49200439453125,21.73161506652832,25.077342987060547,27.008056640625
1759168061.0284863,1759168061.036412,35.08877754211426,0.5521774291992188,0.23984909057617188,21.475791931152344,21.715641021728516,22.569894790649414,23.931264877319336
1759168061.0703733,1759168061.0744789,31.023740768432617,0.25773048400878906,0.24652481079101562,21.352767944335938,21.599292755126953,22.12667465209961,23.8494873046875
1759168061.1015952,1759168061.1077456,37.665367126464844,5.228519439697266,0.2384185791015625,21.472454071044922,21.710872650146484,27.111291885375977,27.982473373413086
1759168061.1426308,1759168061.1443,41.37086868286133,6.816864013671875,0.2410411834716797,21.523714065551758,21.764755249023438,28.751134872436523,29.697895050048828
1759168061.184402,1759168061.189395,32.120466232299805,0.021219253540039062,0.24271011352539062,21.649599075317383,21.892309188842773,22.257566452026367,23.693561553955078
1759168061.2188747,1759168061.2212157,41.51558876037598,6.356716156005859,0.24056434631347656,21.329879760742188,21.570444107055664,28.051137924194336,29.08945083618164
1759168061.2608588,1759168061.2649755,30.588626861572266,0.8788108825683594,0.23651123046875,21.521329879760742,21.757841110229492,22.9036808013916,23.948192596435547
1759168061.2915576,1759168061.300787,39.78395462036133,3.9441585540771484,0.2453327178955078,21.34084701538086,21.586179733276367,25.739192962646484,26.70001983642578
1759168061.3315372,1759168061.3418865,38.114309310913086,0.9968280792236328,0.23651123046875,21.63553237915039,21.87204360961914,23.137569427490234,25.630712509155273
1759168061.3714793,1759168061.3729007,46.89335823059082,8.660554885864258,0.2391338348388672,22.749662399291992,22.98879623413086,31.843900680541992,32.81211853027344
1759168061.419034,1759168061.4203305,36.93342208862305,0.5381107330322266,0.2562999725341797,21.584749221801758,21.841049194335938,22.69601821899414,23.94413948059082
1759168061.4561114,1759168061.457556,33.684730529785156,1.2784004211425781,0.24580955505371094,21.337509155273438,21.58331871032715,23.11253547668457,24.254560470581055
1759168061.4899373,1759168061.4968293,31.403064727783203,0.3216266632080078,0.24175643920898438,21.526813507080078,21.768569946289062,22.35555648803711,29.030799865722656
1759168061.5256371,1759168061.5269113,39.394378662109375,8.393526077270508,0.2434253692626953,21.417617797851562,21.661043167114258,30.177593231201172,30.95245361328125
1759168061.565172,1759168061.5704546,36.12112998962402,3.063201904296875,0.2391338348388672,21.603107452392578,21.842241287231445,25.12049674987793,26.512622833251953
1759168061.6028066,1759168061.6112301,37.07098960876465,0.6389617919921875,0.2448558807373047,21.486282348632812,21.731138229370117,22.646188735961914,23.991823196411133
1759168061.6400158,1759168061.648988,38.041114807128906,0.9946823120117188,0.2422332763671875,21.614789962768555,21.857023239135742,23.089170455932617,24.50847625732422
1759168061.679545,1759168061.6880589,36.58318519592285,0.2503395080566406,0.2472400665283203,21.614551544189453,21.861791610717773,22.41802215576172,23.951292037963867
1759168061.7162647,1759168061.717548,45.61901092529297,9.510278701782227,0.24318695068359375,21.52395248413086,21.767139434814453,31.32009506225586,32.03153610229492
1759168061.7622802,1759168061.7637413,38.32530975341797,1.8558502197265625,0.24461746215820312,21.41284942626953,21.657466888427734,23.721694946289062,24.771451950073242
1759168061.802498,1759168061.803814,34.30747985839844,0.020265579223632812,0.2396106719970703,21.505355834960938,21.744966506958008,22.099733352661133,23.49114418029785
1759168061.8373077,1759168061.8388188,38.770437240600586,3.5364627838134766,0.24580955505371094,21.731138229370117,21.976947784423828,25.72178840637207,26.926517486572266
1759168061.8762224,1759168061.880961,32.19342231750488,0.019073486328125,0.23603439331054688,21.54374122619629,21.779775619506836,22.135019302368164,23.504972457885742
1759168061.9113295,1759168061.9187722,32.0277214050293,0.5035400390625,0.24628639221191406,21.44145965576172,21.687746047973633,22.4916934967041,23.547649383544922
1759168061.9439847,1759168061.952486,39.179086685180664,4.599809646606445,0.25582313537597656,21.334409713745117,21.590232849121094,26.2296199798584,27.27222442626953
1759168061.9903002,1759168061.9948983,35.475969314575195,0.1499652862548828,0.2536773681640625,21.448135375976562,21.701812744140625,22.145509719848633,23.973464965820312
1759168062.0259209,1759168062.0327866,33.38813781738281,0.2486705780029297,0.2396106719970703,21.44336700439453,21.6829776763916,22.200345993041992,23.72145652770996
1759168062.0611274,1759168062.0682933,42.19675064086914,2.576112747192383,0.23627281188964844,21.558761596679688,21.795034408569336,24.57714080810547,26.446104049682617
1759168062.1034203,1759168062.1048617,37.430524826049805,4.352807998657227,0.24008750915527344,28.571605682373047,28.81169319152832,33.406734466552734,34.68775749206543
1759168062.1410472,1759168062.1423717,46.23055458068848,12.64500617980957,0.2422332763671875,21.732568740844727,21.974802017211914,34.66057777404785,35.37344932556152
1759168062.1879983,1759168062.1898549,29.865026473999023,3.748655319213867,0.23818016052246094,21.49653434753418,21.73471450805664,25.728940963745117,26.94416046142578
1759168062.2180061,1759168062.2211673,44.47460174560547,10.944604873657227,0.2384185791015625,21.467208862304688,21.70562744140625,32.69195556640625,33.39862823486328
1759168062.2626793,1759168062.2699947,32.09495544433594,0.5040168762207031,0.24747848510742188,21.52395248413086,21.77143096923828,22.58157730102539,23.76103401184082
1759168062.2949169,1759168062.298166,40.010929107666016,10.7574462890625,0.23865699768066406,21.618127822875977,21.85678482055664,32.65523910522461,34.87396240234375
1759168062.3400338,1759168062.3463852,35.95399856567383,0.18072128295898438,0.23698806762695312,21.53182029724121,21.768808364868164,22.38941192626953,23.826122283935547
1759168062.376126,1759168062.3805854,33.82086753845215,4.288434982299805,0.2372264862060547,21.595239639282227,21.83246612548828,26.323556900024414,28.304100036621094
1759168062.4100432,1759168062.4113784,33.16473960876465,9.207010269165039,0.08082389831542969,20.563602447509766,20.644426345825195,30.007123947143555,30.950546264648438
1759168062.4433537,1759168062.4451256,28.081178665161133,0.06532669067382812,0.2415180206298828,21.524667739868164,21.766185760498047,22.18174934387207,23.33354949951172
1759168062.4743166,1759168062.47556,40.57192802429199,7.90715217590332,0.25177001953125,21.422624588012695,21.674394607543945,29.619216918945312,30.32994270324707
1759168062.5150466,1759168062.5209196,34.00611877441406,0.6201267242431641,0.23794174194335938,21.54827117919922,21.786212921142578,22.684812545776367,24.17612075805664
1759168062.5491908,1759168062.5570683,36.27157211303711,3.0007362365722656,0.23508071899414062,21.58379554748535,21.818876266479492,25.0241756439209,26.11684799194336
1759168062.5856173,1759168062.5953546,38.31315040588379,3.381013870239258,0.23984909057617188,21.498441696166992,21.738290786743164,25.330781936645508,26.25441551208496
1759168062.6264794,1759168062.6343682,42.382240295410156,1.2731552124023438,0.2415180206298828,21.34108543395996,21.582603454589844,23.02265167236328,24.649381637573242
1759168062.668998,1759168062.673335,33.28084945678711,0.6072521209716797,0.24628639221191406,21.52228355407715,21.768569946289062,22.702693939208984,24.138450622558594
1759168062.702419,1759168062.703691,36.797285079956055,9.47117805480957,0.2391338348388672,21.482229232788086,21.721363067626953,31.234025955200195,31.95357322692871
1759168062.745101,1759168062.748069,32.648563385009766,2.9489994049072266,0.24247169494628906,21.38972282409668,21.63219451904297,24.78504180908203,25.87294578552246
1759168062.777885,1759168062.7791615,42.72937774658203,10.2996826171875,0.2422332763671875,21.56829833984375,21.810531616210938,32.15813636779785,32.88674354553223
1759168062.8207512,1759168062.827657,31.200408935546875,0.15163421630859375,0.2460479736328125,21.504878997802734,21.750926971435547,22.203922271728516,23.490428924560547
1759168062.8521478,1759168062.8534753,47.15681076049805,11.875152587890625,0.2472400665283203,21.520376205444336,21.767616271972656,33.68520736694336,34.39784049987793
1759168062.9017758,1759168062.9031062,27.693510055541992,0.020742416381835938,0.2512931823730469,21.530866622924805,21.78215980529785,22.136211395263672,23.602008819580078
1759168062.9354794,1759168062.9413936,36.53264045715332,0.19979476928710938,0.2567768096923828,21.398305892944336,21.65508270263672,22.160768508911133,24.7802734375
1759168062.972192,1759168062.9783366,33.07628631591797,1.56402587890625,0.23889541625976562,21.57282829284668,21.811723709106445,23.64492416381836,27.477264404296875
1759168063.0059977,1759168063.017385,41.405439376831055,0.7529258728027344,0.2384185791015625,21.467208862304688,21.70562744140625,22.737503051757812,24.25551414489746
1759168063.047549,1759168063.0531278,34.702301025390625,3.543376922607422,0.24175643920898438,21.46601676940918,21.707773208618164,25.463581085205078,26.532649993896484
1759168063.0823927,1759168063.0837145,38.208723068237305,11.330842971801758,0.2422332763671875,21.601438522338867,21.843671798706055,33.211708068847656,33.93197059631348
1759168063.1211138,1759168063.1311882,42.435646057128906,1.987457275390625,0.2429485321044922,21.492719650268555,21.735668182373047,23.928403854370117,25.03228187561035
1759168063.163691,1759168063.169317,47.312021255493164,2.7930736541748047,0.23794174194335938,32.89031982421875,33.12826156616211,36.15546226501465,37.775516510009766
1759168063.2111025,1759168063.226953,60.58311462402344,10.429143905639648,0.24461746215820312,29.484033584594727,29.72865104675293,40.282487869262695,41.568756103515625
1759168063.271782,1759168063.2870595,44.448137283325195,2.7365684509277344,0.24127960205078125,21.66128158569336,21.90256118774414,24.809837341308594,25.767803192138672
1759168063.3199043,1759168063.3215163,40.15922546386719,6.247043609619141,0.2524852752685547,21.26622200012207,21.518707275390625,27.92978286743164,28.978824615478516
1759168063.3602002,1759168063.3656187,36.7732048034668,0.020742416381835938,0.24008750915527344,22.1250057220459,22.365093231201172,22.72796630859375,24.170398712158203
1759168063.3971145,1759168063.4038944,32.3336124420166,0.13899803161621094,0.24008750915527344,21.337509155273438,21.57759666442871,22.022724151611328,23.792028427124023
1759168063.4295964,1759168063.436861,44.84820365905762,5.458354949951172,0.25582313537597656,21.413087844848633,21.66891098022461,27.252674102783203,28.081655502319336
1759168063.4746304,1759168063.4803884,35.1712703704834,0.13756752014160156,0.23746490478515625,21.542072296142578,21.779537200927734,22.233009338378906,23.699522018432617
1759168063.5099452,1759168063.5152643,37.87970542907715,3.873586654663086,0.23651123046875,21.646738052368164,21.883249282836914,25.9244441986084,26.884078979492188
1759168063.5491567,1759168063.5560513,33.68067741394043,1.1434555053710938,0.2396106719970703,21.561145782470703,21.800756454467773,23.114919662475586,25.235891342163086
1759168063.5838525,1759168063.594039,43.17069053649902,1.4965534210205078,0.2472400665283203,21.503925323486328,21.75116539001465,23.492813110351562,24.504899978637695
1759168063.6271632,1759168063.6330543,32.301902770996094,0.8566379547119141,0.24318695068359375,21.483898162841797,21.72708511352539,22.85480499267578,23.992061614990234
1759168063.659567,1759168063.6608682,36.99135780334473,11.696338653564453,0.24771690368652344,21.402359008789062,21.650075912475586,33.38336944580078,34.099578857421875
1759168063.6967037,1759168063.6980438,33.72812271118164,9.709596633911133,0.07915496826171875,20.532846450805664,20.612001419067383,30.518770217895508,31.784534454345703
1759168063.7305872,1759168063.7325292,35.565853118896484,0.06628036499023438,0.2300739288330078,21.559953689575195,21.790027618408203,22.193193435668945,23.60081672668457
1759168063.767152,1759168063.7702904,35.9799861907959,0.2589225769042969,0.2524852752685547,21.317243576049805,21.56972885131836,22.125244140625,23.464441299438477
1759168063.803225,1759168063.8079388,33.90979766845703,0.2472400665283203,0.23794174194335938,21.460771560668945,21.698713302612305,22.221803665161133,23.674488067626953
1759168063.8378456,1759168063.8395321,42.79065132141113,7.0819854736328125,0.23865699768066406,21.556377410888672,21.795034408569336,29.086828231811523,30.105113983154297
1759168063.880772,1759168063.8848848,29.785871505737305,0.13256072998046875,0.23937225341796875,21.474838256835938,21.714210510253906,22.148847579956055,23.41294288635254
1759168063.912021,1759168063.9132965,38.689613342285156,10.445594787597656,0.2372264862060547,21.489620208740234,21.72684669494629,32.22393989562988,32.95016288757324
1759168063.9531925,1759168063.9547946,39.92629051208496,6.895542144775391,0.24175643920898438,21.3625431060791,21.604299545288086,28.66530418395996,29.711008071899414
1759168063.9933267,1759168063.9995883,33.14971923828125,0.5414485931396484,0.2391338348388672,21.670818328857422,21.90995216369629,22.75395393371582,24.089813232421875
1759168064.027897,1759168064.0291862,46.00954055786133,9.07278060913086,0.2646446228027344,21.436452865600586,21.70109748840332,30.81679344177246,31.53538703918457
1759168064.0743747,1759168064.0765285,29.047489166259766,0.04172325134277344,0.23555755615234375,21.52419090270996,21.759748458862305,22.15409278869629,23.41318130493164
1759168064.1035697,1759168064.111694,42.77539253234863,3.155231475830078,0.23603439331054688,21.432161331176758,21.668195724487305,25.027990341186523,25.974512100219727
1759168064.1464815,1759168064.1514277,33.007144927978516,0.19288063049316406,0.24771690368652344,21.393775939941406,21.64149284362793,22.145509719848633,24.7194766998291
1759168064.1810162,1759168064.1890895,42.78206825256348,0.3199577331542969,0.2467632293701172,21.44312858581543,21.689891815185547,22.246837615966797,23.748159408569336
1759168064.224531,1759168064.2269845,33.83231163024902,0.06175041198730469,0.24199485778808594,21.274328231811523,21.51632308959961,21.906614303588867,23.506641387939453
1759168064.258511,1759168064.259803,40.24314880371094,5.485057830810547,0.24557113647460938,21.50559425354004,21.75116539001465,27.405261993408203,28.307676315307617
1759168064.2989364,1759168064.3033552,28.54156494140625,0.05435943603515625,0.24509429931640625,21.51346206665039,21.758556365966797,22.159337997436523,23.831844329833984
1759168064.3276844,1759168064.3289998,46.60511016845703,12.929916381835938,0.23651123046875,21.476268768310547,21.712779998779297,34.68036651611328,35.3846549987793
1759168064.3744876,1759168064.375763,38.12694549560547,4.418611526489258,0.23865699768066406,21.407127380371094,21.645784378051758,26.190757751464844,27.033567428588867
1759168064.4132552,1759168064.4185715,34.380435943603516,0.020265579223632812,0.23698806762695312,21.56853675842285,21.805524826049805,22.16792106628418,23.587942123413086
1759168064.447776,1759168064.4501,41.381120681762695,6.5670013427734375,0.24271011352539062,21.44145965576172,21.68416976928711,28.371095657348633,29.41298484802246
1759168064.4896731,1759168064.491172,40.767669677734375,4.046916961669922,0.24175643920898438,21.550893783569336,21.79265022277832,26.010513305664062,27.109622955322266
1759168064.531383,1759168064.5330143,30.675649642944336,0.5135536193847656,0.24366378784179688,21.55590057373047,21.799564361572266,22.622346878051758,24.012327194213867
1759168064.5622451,1759168064.5713143,35.216569900512695,0.5638599395751953,0.2410411834716797,21.599292755126953,21.840333938598633,22.706270217895508,24.010419845581055
1759168064.5979712,1759168064.6081607,43.0600643157959,2.4559497833251953,0.2472400665283203,21.4540958404541,21.701335906982422,24.372339248657227,25.501728057861328
1759168064.641215,1759168064.6449277,33.54954719543457,3.9277076721191406,0.23484230041503906,21.605968475341797,21.840810775756836,25.93827247619629,26.856660842895508
1759168064.6774426,1759168064.6797755,45.206546783447266,7.081270217895508,0.23984909057617188,21.319866180419922,21.559715270996094,28.76567840576172,29.793262481689453
1759168064.7227893,1759168064.725212,31.19492530822754,0.021219253540039062,0.24962425231933594,21.613359451293945,21.86298370361328,22.22609519958496,23.644208908081055
1759168064.7576401,1759168064.7623184,35.3093147277832,0.9584426879882812,0.24771690368652344,21.323442459106445,21.57115936279297,22.79829978942871,24.251461029052734
1759168064.7930865,1759168064.8005695,40.32301902770996,1.0864734649658203,0.2377033233642578,21.519184112548828,21.756887435913086,23.119211196899414,24.168014526367188
1759168064.8335524,1759168064.8371015,30.31301498413086,2.6886463165283203,0.24962425231933594,21.30579948425293,21.555423736572266,24.488449096679688,25.54631233215332
1759168064.8640609,1759168064.8742871,122.59364128112793,85.98494529724121,0.19168853759765625,22.571086883544922,22.762775421142578,109.03215408325195,110.52250862121582
1759168064.989538,1759168064.9912865,28.281688690185547,0.03743171691894531,0.2536773681640625,21.63410186767578,21.887779235839844,22.26853370666504,23.479223251342773
1759168065.0231812,1759168065.0256453,41.31746292114258,6.20269775390625,0.2491474151611328,21.342754364013672,21.591901779174805,27.922630310058594,28.948307037353516
1759168065.064649,1759168065.070393,35.15052795410156,0.7526874542236328,0.24127960205078125,21.418333053588867,21.65961265563965,22.68195152282715,24.089336395263672
1759168065.099939,1759168065.1074307,37.83106803894043,2.153158187866211,0.24175643920898438,21.508216857910156,21.74997329711914,24.149179458618164,25.513410568237305
1759168065.137906,1759168065.1391556,45.8989143371582,8.960247039794922,0.2415180206298828,21.35157585144043,21.593093872070312,30.592918395996094,31.28671646118164
1759168065.1839452,1759168065.1862164,33.01811218261719,0.041484832763671875,0.2410411834716797,21.286964416503906,21.528005599975586,21.8963623046875,23.445606231689453
1759168065.217125,1759168065.2232046,34.59286689758301,1.1491775512695312,0.2460479736328125,21.413803100585938,21.65985107421875,23.03934097290039,24.178504943847656
1759168065.2527792,1759168065.2540812,44.29793357849121,8.611440658569336,0.2422332763671875,21.514415740966797,21.756649017333984,30.541181564331055,31.424522399902344
1759168065.2995565,1759168065.302743,33.28824043273926,1.7964839935302734,0.2791881561279297,22.737979888916016,23.017168045043945,25.11119842529297,27.354001998901367
1759168065.335013,1759168065.3433,34.28149223327637,0.2295970916748047,0.2372264862060547,21.523475646972656,21.76070213317871,22.265195846557617,23.664236068725586
1759168065.369427,1759168065.3788147,39.46542739868164,3.3299922943115234,0.24247169494628906,21.628856658935547,21.871328353881836,25.405406951904297,26.82971954345703
1759168065.4094992,1759168065.4183269,38.664817810058594,2.015829086303711,0.2510547637939453,21.483659744262695,21.73471450805664,23.9865779876709,25.408029556274414
1759168065.4482965,1759168065.4569218,43.874502182006836,1.8415451049804688,0.23889541625976562,21.387100219726562,21.625995635986328,23.708820343017578,26.17788314819336
1759168065.4923084,1759168065.4961123,34.18564796447754,0.13875961303710938,0.2434253692626953,21.537303924560547,21.780729293823242,22.227048873901367,23.612260818481445
1759168065.5266383,1759168065.5282297,39.98279571533203,6.186485290527344,0.2448558807373047,21.465778350830078,21.710634231567383,28.102636337280273,29.240846633911133
1759168065.5667593,1759168065.572081,34.885406494140625,0.84686279296875,0.24437904357910156,21.584510803222656,21.828889846801758,22.945404052734375,24.07240867614746
1759168065.6038132,1759168065.6109312,31.9063663482666,0.053882598876953125,0.23794174194335938,21.495580673217773,21.733522415161133,22.127866744995117,23.759126663208008
1759168065.6367416,1759168065.63804,45.26638984680176,11.245250701904297,0.24843215942382812,21.6977596282959,21.946191787719727,33.231496810913086,33.94961357116699
1759168065.6828873,1759168065.6844099,41.22591018676758,3.937959671020508,0.24843215942382812,21.3925838470459,21.641016006469727,25.77972412109375,26.793479919433594
1759168065.7243187,1759168065.725983,35.401344299316406,0.5095005035400391,0.24175643920898438,21.574020385742188,21.815776824951172,22.63355255126953,24.033308029174805
1759168065.7598588,1759168065.7640843,28.574705123901367,0.24509429931640625,0.2448558807373047,21.320343017578125,21.56519889831543,22.113561630249023,23.431062698364258
1759168065.7885861,1759168065.7898967,48.154354095458984,12.64810562133789,0.2396106719970703,21.60191535949707,21.84152603149414,34.532785415649414,35.25257110595703
1759168065.836879,1759168065.841039,28.387784957885742,0.1342296600341797,0.23937225341796875,21.448373794555664,21.687746047973633,22.1250057220459,23.291587829589844
1759168065.8654082,1759168065.866729,48.9656925201416,12.668609619140625,0.24271011352539062,21.631717681884766,21.874427795410156,34.58666801452637,35.314083099365234
1759168065.9145277,1759168065.9180338,36.12399101257324,0.054836273193359375,0.2467632293701172,21.412372589111328,21.659135818481445,22.042274475097656,23.946046829223633
1759168065.9510555,1759168065.9563804,31.37040138244629,0.020265579223632812,0.2472400665283203,21.525859832763672,21.773099899291992,22.118330001831055,23.504018783569336
1759168065.9883573,1759168065.993172,34.11078453063965,1.149892807006836,0.2460479736328125,21.45218849182129,21.6982364654541,23.085594177246094,24.275779724121094
1759168066.0226116,1759168066.031653,34.63935852050781,1.1219978332519531,0.24199485778808594,21.387338638305664,21.62933349609375,23.029565811157227,24.84583854675293
1759168066.0588374,1759168066.0601175,39.734601974487305,10.811805725097656,0.240325927734375,21.601200103759766,21.84152603149414,32.69338607788086,33.39743614196777
1759168066.1007967,1759168066.1020722,34.74020957946777,6.984710693359375,0.24819374084472656,21.60811424255371,21.856307983398438,28.967857360839844,29.836416244506836
1759168066.1371622,1759168066.1395335,43.87617111206055,7.824182510375977,0.2460479736328125,21.39115333557129,21.6372013092041,29.58059310913086,30.602216720581055
1759168066.1811364,1759168066.182852,39.93797302246094,2.9277801513671875,0.24318695068359375,21.4841365814209,21.727323532104492,24.865388870239258,25.887489318847656
1759168066.2211933,1759168066.2225847,31.60715103149414,1.9726753234863281,0.24080276489257812,21.62909507751465,21.869897842407227,24.121761322021484,25.3446102142334
1759168066.2540503,1759168066.261211,35.62164306640625,1.8849372863769531,0.23603439331054688,21.493196487426758,21.729230880737305,23.887157440185547,24.863243103027344
1759168066.289811,1759168066.297647,37.26983070373535,3.1833648681640625,0.23818016052246094,21.460771560668945,21.698951721191406,25.048255920410156,25.879383087158203
1759168066.327208,1759168066.3381853,43.367624282836914,0.8022785186767578,0.23603439331054688,21.52705192565918,21.763086318969727,22.835731506347656,23.923158645629883
1759168066.3707147,1759168066.3772027,36.04912757873535,0.225067138671875,0.2453327178955078,21.638870239257812,21.88420295715332,22.38607406616211,24.394750595092773
1759168066.4093425,1759168066.411129,39.83807563781738,4.591703414916992,0.2384185791015625,21.490097045898438,21.728515625,26.560544967651367,27.919769287109375
1759168066.4493194,1759168066.453654,30.41696548461914,0.1418590545654297,0.2396106719970703,21.511554718017578,21.75116539001465,22.19414710998535,23.689746856689453
1759168066.4853885,1759168066.4888191,32.076358795166016,3.1387805938720703,0.2453327178955078,21.40665054321289,21.6519832611084,24.989604949951172,26.064157485961914
1759168066.5176587,1759168066.525682,40.89951515197754,4.843473434448242,0.24366378784179688,21.569252014160156,21.812915802001953,26.87239646911621,27.91905403137207
1759168066.5586596,1759168066.5603056,46.16427421569824,8.394241333007812,0.23865699768066406,21.676301956176758,21.914958953857422,30.47800064086914,31.52751922607422
1759168066.6056387,1759168066.6077068,35.63952445983887,0.03933906555175781,0.23412704467773438,21.44789695739746,21.682024002075195,22.05514907836914,23.845434188842773
1759168066.6414354,1759168066.646357,29.30903434753418,0.019073486328125,0.2486705780029297,21.54064178466797,21.7893123626709,22.13740348815918,23.37050437927246
1759168066.6708858,1759168066.6750965,39.429426193237305,9.627342224121094,0.2460479736328125,21.56686782836914,21.812915802001953,31.480073928833008,32.39321708679199
1759168066.7105105,1759168066.7209663,39.67928886413574,2.2416114807128906,0.244140625,21.52562141418457,21.76976203918457,24.221181869506836,25.255441665649414
1759168066.750429,1759168066.7517364,44.65436935424805,9.649276733398438,0.24580955505371094,21.581649780273438,21.82745933532715,31.519174575805664,32.23824501037598
1759168066.795537,1759168066.7973933,29.58989143371582,2.685546875,0.23865699768066406,21.50702476501465,21.745681762695312,24.631261825561523,25.778532028198242
1759168066.8259218,1759168066.8353276,42.67001152038574,3.2927989959716797,0.2422332763671875,21.505355834960938,21.747589111328125,25.212526321411133,26.117324829101562
1759168066.8692603,1759168066.8709104,33.19096565246582,6.023645401000977,0.23674964904785156,21.74067497253418,21.97742462158203,28.16629409790039,29.089927673339844
1759168066.9026525,1759168066.9040048,44.72231864929199,11.258363723754883,0.23651123046875,21.556615829467773,21.793127059936523,33.09512138366699,33.8137149810791
1759168066.9475307,1759168066.952679,32.439231872558594,0.8127689361572266,0.2396106719970703,21.473407745361328,21.7130184173584,22.797822952270508,24.135828018188477
1759168066.981298,1759168066.9913428,37.08243370056152,0.04124641418457031,0.2460479736328125,21.507740020751953,21.753787994384766,22.13263511657715,23.633241653442383
1759168067.01852,1759168067.0197878,44.94738578796387,10.096073150634766,0.2410411834716797,21.643877029418945,21.884918212890625,32.019853591918945,32.74273872375488
1759168067.06362,1759168067.0687075,33.257484436035156,0.15044212341308594,0.23794174194335938,21.38972282409668,21.62766456604004,22.097110748291016,23.801088333129883
1759168067.0970147,1759168067.0983002,46.2038516998291,8.896827697753906,0.24461746215820312,21.512508392333984,21.757125854492188,30.694246292114258,31.393766403198242
1759168067.1433585,1759168067.1446764,36.26370429992676,0.8730888366699219,0.23937225341796875,21.482229232788086,21.721601486206055,22.875070571899414,24.000883102416992
1759168067.179764,1759168067.183994,32.09710121154785,0.04100799560546875,0.244140625,21.54231071472168,21.78645133972168,22.153377532958984,23.47421646118164
1759168067.2120068,1759168067.2144694,46.242713928222656,7.963657379150391,0.24652481079101562,21.56996726989746,21.816492080688477,29.899120330810547,30.905961990356445
1759168067.2592018,1759168067.260482,34.66176986694336,0.5204677581787109,0.2391338348388672,21.50583267211914,21.744966506958008,22.574186325073242,23.78535270690918
1759168067.2940097,1759168067.2988327,30.15279769897461,1.169443130493164,0.24008750915527344,21.422147750854492,21.662235260009766,23.09727668762207,24.4753360748291
1759168067.3243058,1759168067.3256252,50.50206184387207,13.174772262573242,0.3247261047363281,21.795988082885742,22.12071418762207,35.33577919006348,36.05937957763672
1759168067.3749483,1759168067.377493,36.47303581237793,0.024318695068359375,0.24056434631347656,21.712303161621094,21.95286750793457,22.333383560180664,23.608684539794922
1759168067.4115734,1759168067.4156976,32.7754020690918,0.12922286987304688,0.2422332763671875,21.41594886779785,21.65818214416504,22.089481353759766,23.36287498474121
1759168067.444491,1759168067.4458134,34.482717514038086,8.334875106811523,0.23651123046875,21.478652954101562,21.715164184570312,30.17449378967285,30.92789649963379
1759168067.4796488,1759168067.491701,37.845611572265625,0.33402442932128906,0.2410411834716797,21.385669708251953,21.626710891723633,22.228002548217773,23.619890213012695
1759168067.517701,1759168067.5271366,41.886329650878906,3.62396240234375,0.23746490478515625,21.64769172668457,21.885156631469727,25.74610710144043,29.46949005126953
1759168067.5599983,1759168067.5682561,36.38958930969238,0.63323974609375,0.23984909057617188,21.512508392333984,21.752357482910156,22.653818130493164,24.126291275024414
1759168067.6008708,1759168067.606633,37.14704513549805,0.32329559326171875,0.24318695068359375,21.381378173828125,21.62456512451172,22.214651107788086,24.274587631225586
1759168067.6381516,1759168067.6394124,35.13813018798828,5.9223175048828125,0.2448558807373047,21.534204483032227,21.77906036376953,27.826309204101562,28.650760650634766
1759168067.673472,1759168067.679888,36.298274993896484,3.8144588470458984,0.23818016052246094,21.61693572998047,21.85511589050293,25.873422622680664,26.914119720458984
1759168067.7131755,1759168067.7155473,42.04845428466797,6.036043167114258,0.240325927734375,21.463632583618164,21.70395851135254,27.866363525390625,28.90753746032715
1759168067.7553596,1759168067.7602997,29.27112579345703,0.1327991485595703,0.247955322265625,21.375179290771484,21.62313461303711,22.05371856689453,23.830890655517578
1759168067.784773,1759168067.7946799,41.77975654602051,4.120826721191406,0.23698806762695312,21.66152000427246,21.898508071899414,26.187896728515625,27.129650115966797
1759168067.8266447,1759168067.8338783,38.4824275970459,2.521038055419922,0.2453327178955078,21.496057510375977,21.741390228271484,24.387836456298828,25.31576156616211
1759168067.8658314,1759168067.8725872,34.84058380126953,2.3021697998046875,0.24461746215820312,21.610260009765625,21.854877471923828,24.39594268798828,25.745391845703125
1759168067.9008102,1759168067.9090967,39.94894027709961,4.387855529785156,0.24461746215820312,21.47817611694336,21.722793579101562,26.31092071533203,27.490615844726562
1759168067.941795,1759168067.9494092,35.69912910461426,2.4857521057128906,0.23889541625976562,21.493911743164062,21.732807159423828,24.45840835571289,25.79188346862793
1759168067.9776945,1759168067.9868627,40.27891159057617,3.5181045532226562,0.2608299255371094,21.475553512573242,21.73638343811035,25.454998016357422,26.548147201538086
1759168068.0246983,1759168068.0278974,30.879497528076172,0.0476837158203125,0.2391338348388672,21.36826515197754,21.607398986816406,21.99697494506836,23.672103881835938
1759168068.061142,1759168068.0651238,28.91087532043457,0.6046295166015625,0.24056434631347656,21.350383758544922,21.5909481048584,22.50385284423828,24.18065071105957
1759168068.090194,1759168068.0943422,39.90793228149414,10.173559188842773,0.2415180206298828,21.498918533325195,21.740436553955078,32.03892707824707,32.898664474487305
1759168068.1321468,1759168068.1334255,43.75195503234863,9.181737899780273,0.2377033233642578,21.38066291809082,21.618366241455078,30.8382511138916,31.554460525512695
1759168068.17604,1759168068.1809762,31.677961349487305,0.14138221740722656,0.2384185791015625,21.506309509277344,21.744728088378906,22.192001342773438,23.374319076538086
1759168068.2086904,1759168068.2195919,37.48440742492676,0.3476142883300781,0.23889541625976562,21.589279174804688,21.828174591064453,22.473812103271484,24.40333366394043
1759168068.247608,1759168068.2565336,38.03229331970215,1.1582374572753906,0.23818016052246094,21.361112594604492,21.599292755126953,22.957563400268555,24.86276626586914
1759168068.2858317,1759168068.2949908,34.96503829956055,0.054836273193359375,0.244140625,21.470069885253906,21.714210510253906,22.105693817138672,23.827314376831055
1759168068.3209388,1759168068.330664,41.64624214172363,2.7420520782470703,0.24819374084472656,21.503686904907227,21.751880645751953,24.697303771972656,26.86023712158203
1759168068.3627214,1759168068.3701243,35.28451919555664,1.5807151794433594,0.24199485778808594,21.628856658935547,21.870851516723633,23.72288703918457,25.09450912475586
1759168068.4016159,1759168068.4039826,40.69161415100098,5.729436874389648,0.2410411834716797,21.279096603393555,21.520137786865234,27.375459671020508,28.395652770996094
1759168068.442444,1759168068.448267,31.122207641601562,0.021219253540039062,0.247955322265625,21.439075469970703,21.687030792236328,22.037506103515625,23.885250091552734
1759168068.4737616,1759168068.482775,38.99097442626953,3.2753944396972656,0.2415180206298828,21.381139755249023,21.622657775878906,25.097370147705078,26.009321212768555
1759168068.5128908,1759168068.514191,40.95768928527832,10.084867477416992,0.25081634521484375,21.741628646850586,21.99244499206543,32.12094306945801,32.850027084350586
1759168068.5582576,1759168068.5607305,30.388832092285156,1.873016357421875,0.23746490478515625,21.574974060058594,21.81243896484375,23.96368980407715,25.444984436035156
1759168068.588788,1759168068.5900688,48.16246032714844,10.863065719604492,0.24366378784179688,21.517515182495117,21.761178970336914,32.74369239807129,33.54978561401367
1759168068.6373527,1759168068.6388245,26.30758285522461,0.7202625274658203,0.24127960205078125,21.451473236083984,21.692752838134766,22.699356079101562,23.861169815063477
1759168068.6642692,1759168068.6732898,48.58064651489258,5.138397216796875,0.25010108947753906,21.41594886779785,21.66604995727539,27.010202407836914,28.0611515045166
1759168068.712943,1759168068.7158954,29.86907958984375,0.13208389282226562,0.24390220642089844,21.526813507080078,21.770715713500977,22.205591201782227,23.766040802001953
1759168068.7429996,1759168068.7542293,40.291786193847656,0.1499652862548828,0.2498626708984375,21.420717239379883,21.67057991027832,22.126436233520508,23.48613739013672
1759168068.7834318,1759168068.7919,38.70844841003418,0.8809566497802734,0.2396106719970703,21.64936065673828,21.88897132873535,23.04363250732422,26.529312133789062
1759168068.8222778,1759168068.823618,41.260480880737305,7.468461990356445,0.2384185791015625,21.547555923461914,21.785974502563477,29.374361038208008,30.210256576538086
1759168068.8657649,1759168068.8675659,39.357900619506836,2.012014389038086,0.24056434631347656,21.640300750732422,21.8808650970459,24.171829223632812,25.55370330810547
1759168068.9062676,1759168068.9077861,34.871578216552734,0.942230224609375,0.2372264862060547,21.504640579223633,21.741867065429688,22.986888885498047,24.422645568847656
1759168068.9412773,1759168068.9467733,30.773639678955078,0.020503997802734375,0.2434253692626953,21.60787582397461,21.851301193237305,22.207975387573242,23.592710494995117
1759168068.9722476,1759168068.981986,40.66872596740723,2.7573108673095703,0.23794174194335938,21.44479751586914,21.6827392578125,24.649620056152344,25.873899459838867
1759168069.013052,1759168069.0143135,45.82571983337402,8.782625198364258,0.24008750915527344,21.56996726989746,21.810054779052734,30.633926391601562,31.331777572631836
1759168069.0598803,1759168069.061158,31.96430206298828,0.514984130859375,0.24318695068359375,21.634817123413086,21.87800407409668,22.696256637573242,23.894786834716797
1759168069.0919805,1759168069.098034,39.612770080566406,1.8041133880615234,0.240325927734375,21.51966094970703,21.759986877441406,23.833513259887695,25.269031524658203
1759168069.1317327,1759168069.1375546,35.52412986755371,1.2700557708740234,0.24056434631347656,21.469831466674805,21.71039581298828,23.250102996826172,24.346113204956055
1759168069.1673977,1759168069.168732,43.60818862915039,8.760213851928711,0.24628639221191406,21.62623405456543,21.872520446777344,30.75718879699707,31.588077545166016
1759168069.2111492,1759168069.2159572,35.16221046447754,0.04076957702636719,0.24318695068359375,21.52538299560547,21.768569946289062,22.151470184326172,23.59318733215332
1759168069.2465463,1759168069.2478158,42.01769828796387,6.768465042114258,0.23889541625976562,21.61121368408203,21.850109100341797,28.743743896484375,29.58059310913086
1759168069.2887058,1759168069.2926419,33.911705017089844,0.12636184692382812,0.24652481079101562,21.46768569946289,21.714210510253906,22.1560001373291,23.52738380432129
1759168069.3227584,1759168069.3286219,35.22181510925293,2.698183059692383,0.2472400665283203,21.619319915771484,21.866559982299805,24.80626106262207,26.110410690307617
1759168069.358065,1759168069.3593743,45.64547538757324,10.89930534362793,0.24628639221191406,21.396398544311523,21.642684936523438,32.58395195007324,33.29205513000488
1759168069.4038475,1759168069.4085088,39.223670959472656,0.13971328735351562,0.24247169494628906,21.544694900512695,21.787166595458984,22.235631942749023,23.396968841552734
1759168069.443479,1759168069.4457552,31.90135955810547,0.8108615875244141,0.23555755615234375,21.51942253112793,21.754980087280273,22.80879020690918,24.458646774291992
1759168069.4755268,1759168069.476831,40.89498519897461,8.273839950561523,0.2415180206298828,21.45862579345703,21.700143814086914,30.095577239990234,30.86376190185547
1759168069.51657,1759168069.5178802,32.50265121459961,5.510807037353516,0.24580955505371094,21.595001220703125,21.840810775756836,27.518749237060547,28.433561325073242
1759168069.5492122,1759168069.5607624,38.968563079833984,0.7631778717041016,0.2396106719970703,21.346569061279297,21.586179733276367,22.62425422668457,26.16143226623535
1759168069.5883708,1759168069.5959463,37.52541542053223,4.363536834716797,0.2422332763671875,21.524429321289062,21.76666259765625,26.371002197265625,27.518033981323242
1759168069.6291265,1759168069.63145,41.582584381103516,6.688356399536133,0.2415180206298828,21.56376838684082,21.805286407470703,28.614521026611328,29.652833938598633
1759168069.671236,1759168069.6725278,38.315534591674805,4.118680953979492,0.2396106719970703,21.575212478637695,21.814823150634766,26.110410690307617,27.026891708374023
1759168069.709644,1759168069.7147424,32.08422660827637,0.019788742065429688,0.2415180206298828,21.65365219116211,21.895170211791992,22.25351333618164,23.657560348510742
1759168069.7423048,1759168069.743596,43.73931884765625,9.525299072265625,0.23984909057617188,21.50249481201172,21.74234390258789,31.38589859008789,32.15813636779785
1759168069.7861857,1759168069.7877312,32.1049690246582,3.7834644317626953,0.23889541625976562,21.491050720214844,21.72994613647461,25.75206756591797,27.046918869018555
1759168069.818429,1759168069.825519,45.85528373718262,4.881143569946289,0.24771690368652344,21.56853675842285,21.816253662109375,26.81899070739746,29.029369354248047
1759168069.8644269,1759168069.8659604,34.63006019592285,2.0952224731445312,0.24271011352539062,21.344661712646484,21.587371826171875,23.8492488861084,24.760961532592773
1759168069.8991919,1759168069.9061003,34.3017578125,0.018358230590820312,0.24127960205078125,21.715641021728516,21.956920623779297,22.315263748168945,23.67854118347168
1759168069.9339755,1759168069.9433923,42.53387451171875,1.0297298431396484,0.24938583374023438,21.485567092895508,21.734952926635742,23.00095558166504,24.744033813476562
1759168069.9766521,1759168069.982048,37.192583084106445,0.6458759307861328,0.24175643920898438,21.54231071472168,21.784067153930664,22.711753845214844,24.181365966796875
1759168070.013979,1759168070.0186436,35.76827049255371,2.8634071350097656,0.2434253692626953,21.482467651367188,21.725893020629883,24.832487106323242,26.150226593017578
1759168070.049884,1759168070.051175,43.86305809020996,9.104251861572266,0.2434253692626953,21.4536190032959,21.697044372558594,30.841588973999023,31.549930572509766
1759168070.0939283,1759168070.098715,33.171892166137695,0.021219253540039062,0.244140625,21.70538902282715,21.94952964782715,22.304296493530273,23.746252059936523
1759168070.1275353,1759168070.12989,44.81315612792969,7.276058197021484,0.2410411834716797,21.64435386657715,21.885395050048828,29.28447723388672,30.346393585205078
1759168070.1724434,1759168070.1760497,36.59701347351074,0.018835067749023438,0.2415180206298828,21.48747444152832,21.728992462158203,22.083759307861328,23.235082626342773
1759168070.2091775,1759168070.2134507,30.784130096435547,0.6010532379150391,0.24247169494628906,21.349668502807617,21.592140197753906,22.49431610107422,23.858070373535156
1759168070.2410197,1759168070.24229,44.672489166259766,9.964942932128906,0.24127960205078125,21.390199661254883,21.631479263305664,31.63909912109375,32.35054016113281
1759168070.2858272,1759168070.291172,31.4333438873291,0.024080276489257812,0.2415180206298828,21.52872085571289,21.770238876342773,22.13430404663086,23.772239685058594
1759168070.3174021,1759168070.3187091,44.66748237609863,10.440349578857422,0.23818016052246094,21.553754806518555,21.791934967041016,32.35197067260742,33.19501876831055
1759168070.3622236,1759168070.367417,30.852317810058594,0.19168853759765625,0.24199485778808594,21.478891372680664,21.72088623046875,22.232532501220703,23.606061935424805
1759168070.3932624,1759168070.4039216,44.51155662536621,2.1660327911376953,0.2377033233642578,21.495342254638672,21.73304557800293,24.173736572265625,26.0164737701416
1759168070.4379084,1759168070.4426348,39.969444274902344,1.7936229705810547,0.24652481079101562,21.611690521240234,21.85821533203125,23.93031120300293,25.32172203063965
1759168070.4780161,1759168070.4823015,33.63513946533203,0.13685226440429688,0.2522468566894531,21.409034729003906,21.66128158569336,22.100448608398438,23.590803146362305
1759168070.5118377,1759168070.5201023,34.50489044189453,1.0013580322265625,0.24509429931640625,21.440982818603516,21.686077117919922,22.953033447265625,24.467945098876953
1759168070.5487573,1759168070.550036,35.75563430786133,9.315252304077148,0.24843215942382812,21.450281143188477,21.698713302612305,31.055450439453125,31.766891479492188
1759168070.5846121,1759168070.5942857,38.33794593811035,3.0477046966552734,0.2503395080566406,21.47650718688965,21.72684669494629,24.98340606689453,26.009559631347656
1759168070.6231415,1759168070.6301713,42.20461845397949,5.931377410888672,0.24199485778808594,21.525144577026367,21.767139434814453,27.905941009521484,29.10161018371582
1759168070.665485,1759168070.6734486,35.13145446777344,0.9324550628662109,0.24700164794921875,21.52109146118164,21.76809310913086,22.93872833251953,25.578737258911133
1759168070.7007542,1759168070.7069812,40.51709175109863,5.913496017456055,0.24199485778808594,21.527767181396484,21.76976203918457,27.810096740722656,28.720617294311523
1759168070.741405,1759168070.7426856,43.340206146240234,9.154558181762695,0.240325927734375,21.521329879760742,21.761655807495117,30.95388412475586,31.669139862060547
1759168070.78488,1759168070.790183,31.331300735473633,0.019550323486328125,0.2422332763671875,21.58808708190918,21.830320358276367,22.188901901245117,23.492813110351562
1759168070.8164985,1759168070.823835,44.69895362854004,4.231691360473633,0.23746490478515625,21.571874618530273,21.80933952331543,26.163101196289062,27.265071868896484
1759168070.8613365,1759168070.8654933,31.97169303894043,0.6225109100341797,0.24747848510742188,21.37923240661621,21.626710891723633,22.556543350219727,24.01137351989746
1759168070.8934436,1759168070.9004455,35.28618812561035,3.91387939453125,0.27179718017578125,21.65365219116211,21.92544937133789,26.00693702697754,26.936769485473633
1759168070.9288254,1759168070.9301732,33.686161041259766,9.549379348754883,0.08153915405273438,20.638227462768555,20.71976661682129,30.467510223388672,31.740188598632812
1759168070.9626567,1759168070.9646053,27.93717384338379,0.06794929504394531,0.22649765014648438,21.421194076538086,21.64769172668457,22.05824851989746,23.41294288635254
1759168070.998162,1759168071.002749,31.50486946105957,0.13327598571777344,0.23818016052246094,21.36373519897461,21.60191535949707,22.03845977783203,24.013996124267578
1759168071.029854,1759168071.034994,41.94927215576172,6.323337554931641,0.2453327178955078,21.482229232788086,21.727561950683594,28.221845626831055,29.27112579345703
1759168071.0719373,1759168071.078994,37.1401309967041,0.14734268188476562,0.23555755615234375,21.549463272094727,21.78502082824707,22.23801612854004,23.549318313598633
1759168071.1092184,1759168071.1105337,43.52426528930664,7.123231887817383,0.24080276489257812,21.61240577697754,21.853208541870117,29.101133346557617,29.935836791992188
1759168071.15458,1759168071.1558783,35.40754318237305,0.522613525390625,0.24461746215820312,21.507978439331055,21.752595901489258,22.58157730102539,23.79322052001953
1759168071.1901243,1759168071.194152,34.66486930847168,0.04172325134277344,0.2377033233642578,21.47197723388672,21.709680557250977,22.078752517700195,23.60367774963379
1759168071.2249827,1759168071.2330084,33.71596336364746,0.18858909606933594,0.23818016052246094,21.437883377075195,21.676063537597656,22.162675857543945,24.034976959228516
1759168071.258837,1759168071.260118,38.68746757507324,11.313199996948242,0.2448558807373047,21.58522605895996,21.830081939697266,33.186912536621094,33.91551971435547
1759168071.297619,1759168071.3084252,39.522409439086914,1.0056495666503906,0.24247169494628906,21.35491371154785,21.59738540649414,22.873878479003906,23.914813995361328
1759168071.3373332,1759168071.3386135,41.49031639099121,9.092092514038086,0.2391338348388672,21.481037139892578,21.720170974731445,30.99370002746582,31.929492950439453
1759168071.3789573,1759168071.3806324,41.45646095275879,5.39088249206543,0.2391338348388672,21.509647369384766,21.748781204223633,27.2672176361084,28.546810150146484
1759168071.4210794,1759168071.4239342,30.110836029052734,0.05340576171875,0.23651123046875,21.358251571655273,21.594762802124023,21.980762481689453,23.60701560974121
1759168071.454639,1759168071.4610188,39.370059967041016,1.6894340515136719,0.2434253692626953,21.412134170532227,21.655559539794922,23.586034774780273,24.753570556640625
1759168071.494157,1759168071.4956074,39.72268104553223,5.540609359741211,0.23484230041503906,21.47698402404785,21.71182632446289,27.493000030517578,28.676509857177734
1759168071.5340154,1759168071.5390244,36.791324615478516,0.04029273986816406,0.24318695068359375,21.493911743164062,21.737098693847656,22.115707397460938,23.657560348510742
1759168071.5709414,1759168071.5766253,38.07878494262695,0.8397102355957031,0.24843215942382812,21.457910537719727,21.706342697143555,22.8118896484375,24.17159080505371
1759168071.609156,1759168071.6131766,33.7066650390625,2.5293827056884766,0.24008750915527344,21.615982055664062,21.856069564819336,24.63078498840332,26.045560836791992
1759168071.6451964,1759168071.6467981,42.823076248168945,6.937980651855469,0.23603439331054688,21.39115333557129,21.627187728881836,28.73969078063965,29.78801727294922
1759168071.6881695,1759168071.6898766,39.03818130493164,2.2499561309814453,0.2415180206298828,21.341323852539062,21.582841873168945,24.096250534057617,25.226116180419922
1759168071.7281659,1759168071.7297673,35.18533706665039,0.5223751068115234,0.24843215942382812,21.63219451904297,21.880626678466797,22.7053165435791,24.11508560180664
1759168071.7634842,1759168071.7683399,35.3856086730957,0.1277923583984375,0.24652481079101562,21.506071090698242,21.752595901489258,22.19390869140625,23.685455322265625
1759168071.7990072,1759168071.805958,40.60220718383789,0.6401538848876953,0.23984909057617188,21.6064453125,21.846294403076172,22.76444435119629,24.233341217041016
1759168071.8397474,1759168071.8443716,30.499935150146484,0.22721290588378906,0.2391338348388672,21.499156951904297,21.738290786743164,22.24278450012207,23.73218536376953
1759168071.8704388,1759168071.8785548,38.13743591308594,4.434347152709961,0.23794174194335938,21.584272384643555,21.822214126586914,26.457786560058594,28.092384338378906
1759168071.9103012,1759168071.9115827,36.4382266998291,9.474515914916992,0.23937225341796875,21.435022354125977,21.674394607543945,31.191110610961914,31.90469741821289
1759168071.9469302,1759168071.9550016,41.67509078979492,4.504680633544922,0.23627281188964844,21.589279174804688,21.825551986694336,26.540279388427734,27.610063552856445
1759168071.9911485,1759168071.9927373,41.204214096069336,4.9266815185546875,0.23984909057617188,21.58951759338379,21.82936668395996,26.932239532470703,27.97865867614746
1759168072.0324903,1759168072.0356572,31.7232608795166,0.04553794860839844,0.24056434631347656,21.281003952026367,21.521568298339844,21.914243698120117,23.585796356201172
1759168072.0665977,1759168072.07301,37.83297538757324,0.78582763671875,0.23889541625976562,21.49200439453125,21.730899810791016,22.752761840820312,24.573802947998047
1759168072.1045744,1759168072.1106427,33.350229263305664,1.5761852264404297,0.23818016052246094,21.579742431640625,21.817922592163086,23.669004440307617,25.3293514251709
1759168072.1380544,1759168072.149239,40.13347625732422,1.558065414428711,0.2372264862060547,21.462678909301758,21.699905395507812,23.467302322387695,24.900436401367188
1759168072.1819406,1759168072.186447,32.07683563232422,2.0079612731933594,0.2601146697998047,21.482229232788086,21.74234390258789,23.92101287841797,24.933815002441406
1759168072.2162895,1759168072.2175431,43.47562789916992,8.77523422241211,0.24557113647460938,21.570444107055664,21.816015243530273,30.633211135864258,31.344890594482422
1759168072.260489,1759168072.2638097,30.693531036376953,0.018358230590820312,0.24127960205078125,21.572113037109375,21.813392639160156,22.165775299072266,23.505687713623047
1759168072.2912767,1759168072.301196,37.01329231262207,0.8018016815185547,0.23627281188964844,21.50869369506836,21.744966506958008,22.817373275756836,23.861169815063477
1759168072.3292885,1759168072.3305635,44.7995662689209,9.47260856628418,0.24008750915527344,21.506071090698242,21.746158599853516,31.258821487426758,31.97312355041504
1759168072.3742325,1759168072.3787596,33.968210220336914,0.13875961303710938,0.23865699768066406,21.474599838256836,21.7132568359375,22.15409278869629,23.822784423828125
1759168072.4092636,1759168072.41056,36.3764762878418,6.517648696899414,0.2396106719970703,21.536588668823242,21.776199340820312,28.499603271484375,29.544830322265625
1759168072.4480448,1759168072.4551857,32.58943557739258,0.2543926239013672,0.24628639221191406,21.50249481201172,21.748781204223633,22.281646728515625,23.8037109375
1759168072.4825597,1759168072.483823,42.7243709564209,9.71364974975586,0.2384185791015625,21.625518798828125,21.863937377929688,31.61787986755371,32.33456611633301
1759168072.5254295,1759168072.5274415,38.70034217834473,4.312753677368164,0.24175643920898438,21.491289138793945,21.73304557800293,26.25727653503418,27.406930923461914
1759168072.5642662,1759168072.5702174,31.725645065307617,0.020742416381835938,0.2384185791015625,21.700620651245117,21.93903923034668,22.30072021484375,23.700952529907227
1759168072.5975826,1759168072.5988495,39.30926322937012,9.753704071044922,0.23937225341796875,21.358251571655273,21.597623825073242,31.389236450195312,32.1044921875
1759168072.6370335,1759168072.6383483,34.102678298950195,8.46099853515625,0.24056434631347656,21.64483070373535,21.885395050048828,30.470848083496094,31.304597854614258
1759168072.672867,1759168072.6827462,39.14189338684082,2.3069381713867188,0.2434253692626953,21.636962890625,21.880388259887695,24.42646026611328,25.81000328063965
1759168072.7135854,1759168072.7231553,34.056901931762695,0.1304149627685547,0.247955322265625,21.53635025024414,21.784305572509766,22.217988967895508,23.582935333251953
1759168072.7477834,1759168072.7566478,44.82913017272949,5.104780197143555,0.24628639221191406,21.538972854614258,21.785259246826172,27.06170082092285,27.952194213867188
1759168072.7927535,1759168072.7986825,32.579898834228516,1.1479854583740234,0.23889541625976562,21.463394165039062,21.702289581298828,23.085594177246094,24.27816390991211
1759168072.8254733,1759168072.8373258,37.71257400512695,1.2214183807373047,0.24318695068359375,21.509408950805664,21.752595901489258,23.253440856933594,27.287006378173828
1759168072.8633296,1759168072.8695385,42.00911521911621,7.481098175048828,0.24437904357910156,21.500349044799805,21.744728088378906,29.39605712890625,30.466318130493164
1759168072.9063482,1759168072.913377,40.055274963378906,1.9652843475341797,0.24938583374023438,21.710634231567383,21.960020065307617,24.132490158081055,25.209665298461914
1759168072.9465454,1759168072.9518206,33.46610069274902,1.9564628601074219,0.23889541625976562,21.664142608642578,21.903038024902344,24.13463592529297,25.57086944580078
1759168072.98257,1759168072.984837,42.51217842102051,6.956815719604492,0.24437904357910156,21.511077880859375,21.755456924438477,28.83315086364746,29.900074005126953
1759168073.0265646,1759168073.0280755,31.27455711364746,2.3040771484375,0.27632713317871094,21.607637405395508,21.88396453857422,24.434804916381836,25.6960391998291
1759168073.0602236,1759168073.0670636,34.629106521606445,1.3849735260009766,0.26488304138183594,21.439313888549805,21.70419692993164,23.328542709350586,25.74324607849121
1759168073.0965607,1759168073.0978117,34.77764129638672,9.084701538085938,0.2396106719970703,21.53635025024414,21.77596092224121,30.98297119140625,31.823158264160156
1759168073.131481,1759168073.1388972,40.677785873413086,6.732940673828125,0.23889541625976562,21.717309951782227,21.956205368041992,28.879404067993164,29.901981353759766
1759168073.1726344,1759168073.1822126,36.97538375854492,1.8036365509033203,0.23865699768066406,21.561145782470703,21.799802780151367,23.87380599975586,25.9244441986084
1759168073.210489,1759168073.2207296,37.134647369384766,1.384735107421875,0.2410411834716797,21.457195281982422,21.6982364654541,23.32592010498047,24.50418472290039
1759168073.2480745,1759168073.2587333,39.614200592041016,1.997232437133789,0.24557113647460938,21.56853675842285,21.81410789489746,24.053096771240234,25.814533233642578
1759168073.2878234,1759168073.2890894,35.80760955810547,10.461091995239258,0.24580955505371094,21.355628967285156,21.601438522338867,32.10043907165527,32.80282020568848
1759168073.3238277,1759168073.3324354,43.996334075927734,5.120992660522461,0.2410411834716797,21.453857421875,21.69489860534668,26.98659896850586,27.980566024780273
1759168073.3679209,1759168073.3731856,35.39729118347168,2.8564929962158203,0.24247169494628906,21.69346809387207,21.93593978881836,25.031089782714844,26.30305290222168
1759168073.4060292,1759168073.4083188,36.28993034362793,5.916118621826172,0.2422332763671875,21.72231674194336,21.964550018310547,28.004169464111328,29.02388572692871
1759168073.445562,1759168073.4471638,37.16850280761719,5.014657974243164,0.24056434631347656,21.488666534423828,21.729230880737305,26.914596557617188,27.882099151611328
1759168073.4837406,1759168073.487239,34.03067588806152,3.125905990600586,0.2472400665283203,21.533966064453125,21.781206130981445,25.110960006713867,26.168346405029297
1759168073.5207393,1759168073.5272663,39.50047492980957,1.3387203216552734,0.2415180206298828,21.41547203063965,21.65699005126953,23.266315460205078,24.714946746826172
1759168073.5607038,1759168073.5666392,31.099319458007812,0.5741119384765625,0.23555755615234375,21.520376205444336,21.75593376159668,22.641658782958984,23.723125457763672
1759168073.5928755,1759168073.601957,44.26312446594238,3.4990310668945312,0.24580955505371094,21.49653434753418,21.74234390258789,25.44379234313965,26.362180709838867
1759168073.637276,1759168073.643376,32.82618522644043,0.05555152893066406,0.2448558807373047,21.575212478637695,21.820068359375,22.219419479370117,23.8645076751709
1759168073.6711528,1759168073.678425,36.028385162353516,3.3485889434814453,0.2384185791015625,21.58832550048828,21.826744079589844,25.382518768310547,26.773929595947266
1759168073.7101092,1759168073.7113912,45.2272891998291,8.21375846862793,0.23818016052246094,21.312236785888672,21.550416946411133,29.80518341064453,30.524253845214844
1759168073.7557902,1759168073.7583168,31.975984573364258,0.04887580871582031,0.25010108947753906,21.474123001098633,21.724224090576172,22.106170654296875,23.88310432434082
1759168073.7879007,1759168073.7891603,129.24742698669434,99.16281700134277,0.20170211791992188,23.053407669067383,23.255109786987305,122.8175163269043,123.52657318115234
1759168073.9189126,1759168073.920375,26.72600746154785,0.021457672119140625,0.26297569274902344,21.85821533203125,22.121191024780273,22.490501403808594,24.044513702392578
1759168073.9466841,1759168073.9589927,44.495582580566406,2.651214599609375,0.2486705780029297,21.538257598876953,21.786928176879883,24.68276023864746,28.04088592529297
1759168073.9913216,1759168073.9970784,36.893367767333984,4.2572021484375,0.2522468566894531,21.4383602142334,21.69060707092285,26.116371154785156,28.226852416992188
1759168074.0284078,1759168074.037793,43.494462966918945,2.2172927856445312,0.24318695068359375,21.311044692993164,21.554231643676758,23.975849151611328,24.98602867126465
1759168074.0720515,1759168074.0733547,30.69019317626953,5.126237869262695,0.25844573974609375,21.40212059020996,21.660566329956055,26.990413665771484,28.02109718322754
1759168074.1028845,1759168074.1041968,50.11773109436035,12.669086456298828,0.24056434631347656,21.553516387939453,21.79408073425293,34.50632095336914,35.20703315734863
1759168074.1534235,1759168074.1547477,33.2949161529541,0.8578300476074219,0.24437904357910156,21.534442901611328,21.77882194519043,22.912979125976562,24.00827407836914
1759168074.1868567,1759168074.1932135,38.82336616516113,0.8609294891357422,0.24247169494628906,21.4235782623291,21.66604995727539,22.7968692779541,23.857831954956055
1759168074.2258177,1759168074.2286534,32.70411491394043,3.6163330078125,0.24771690368652344,21.66891098022461,21.916627883911133,25.70199966430664,26.83401107788086
1759168074.2599316,1759168074.2612092,42.877197265625,8.887052536010742,0.2422332763671875,21.345138549804688,21.587371826171875,30.512332916259766,31.213045120239258
1759168074.30351,1759168074.3081086,29.72722053527832,0.1442432403564453,0.2422332763671875,21.503686904907227,21.745920181274414,22.192955017089844,23.411273956298828
1759168074.3344796,1759168074.3357525,36.18025779724121,10.734319686889648,0.24700164794921875,21.49486541748047,21.741867065429688,32.51934051513672,33.23721885681152
1759168074.3708556,1759168074.379479,42.75798797607422,5.570411682128906,0.24199485778808594,21.508455276489258,21.750450134277344,27.492046356201172,28.436899185180664
1759168074.4137545,1759168074.415067,35.00533103942871,8.65030288696289,0.24199485778808594,21.378755569458008,21.620750427246094,30.39836883544922,31.237125396728516
1759168074.4488952,1759168074.460724,47.20759391784668,1.0118484497070312,0.240325927734375,21.596670150756836,21.83699607849121,23.119449615478516,24.350643157958984
1759168074.4962418,1759168074.49947,27.514934539794922,0.038623809814453125,0.24080276489257812,21.381139755249023,21.6219425201416,21.99268341064453,23.67091178894043
1759168074.523897,1759168074.531135,39.55554962158203,6.568670272827148,0.24271011352539062,21.596670150756836,21.839380264282227,28.52916717529297,29.359102249145508
1759168074.5644915,1759168074.575116,38.89036178588867,0.6194114685058594,0.24247169494628906,21.58641815185547,21.828889846801758,22.722482681274414,24.37281608581543
1759168074.6038508,1759168074.605116,39.884090423583984,8.719682693481445,0.2460479736328125,21.491527557373047,21.73757553100586,30.498981475830078,31.204938888549805
1759168074.6438694,1759168074.6517723,34.42025184631348,0.9160041809082031,0.23865699768066406,21.557092666625977,21.79574966430664,23.047208786010742,24.374008178710938
1759168074.6791058,1759168074.688634,37.51373291015625,1.9104480743408203,0.23984909057617188,21.442651748657227,21.6825008392334,23.79631996154785,24.892330169677734
1759168074.7167482,1759168074.7252953,36.43441200256348,3.4837722778320312,0.2377033233642578,21.494626998901367,21.732330322265625,25.420665740966797,26.320934295654297
1759168074.754416,1759168074.764545,39.48259353637695,2.498626708984375,0.23865699768066406,21.67344093322754,21.912097930908203,24.617433547973633,26.14903450012207
1759168074.7944722,1759168074.8048663,36.08226776123047,0.21338462829589844,0.24008750915527344,21.362781524658203,21.602869033813477,22.08399772644043,23.61607551574707
1759168074.834264,1759168074.835854,43.331146240234375,6.565093994140625,0.24628639221191406,21.41571044921875,21.661996841430664,28.39207649230957,29.430150985717773
1759168074.8783052,1759168074.8801208,35.004615783691406,0.9198188781738281,0.24127960205078125,21.575450897216797,21.816730499267578,23.039579391479492,24.660825729370117
1759168074.9143398,1759168074.919185,29.326200485229492,0.1354217529296875,0.24247169494628906,21.608591079711914,21.851062774658203,22.291183471679688,23.744821548461914
1759168074.9456978,1759168074.9551983,41.01753234863281,2.114534378051758,0.2460479736328125,21.579265594482422,21.825313568115234,24.105548858642578,25.06256103515625
1759168074.9868522,1759168074.9948356,37.06789016723633,0.9329319000244141,0.23484230041503906,21.628618240356445,21.863460540771484,23.034095764160156,25.70486068725586
1759168075.0265484,1759168075.0281553,32.71222114562988,5.700588226318359,0.23627281188964844,21.48747444152832,21.72374725341797,27.58932113647461,28.626441955566406
1759168075.059446,1759168075.064236,38.35272789001465,7.912874221801758,0.24008750915527344,21.692991256713867,21.93307876586914,29.96969223022461,30.996084213256836
1759168075.097996,1759168075.099302,48.34437370300293,11.482954025268555,0.26726722717285156,21.394968032836914,21.662235260009766,33.18524360656738,33.90145301818848
1759168075.1464815,1759168075.1479795,34.713029861450195,1.0361671447753906,0.24557113647460938,21.58045768737793,21.82602882385254,23.13232421875,24.480581283569336
1759168075.1821709,1759168075.1837745,30.99822998046875,3.402233123779297,0.2415180206298828,21.50702476501465,21.74854278564453,25.351524353027344,26.424884796142578
1759168075.213752,1759168075.2236211,37.01066970825195,1.287221908569336,0.23818016052246094,21.689414978027344,21.927595138549805,23.384571075439453,25.958538055419922
1759168075.25733,1759168075.2623005,31.237363815307617,0.9453296661376953,0.23937225341796875,21.39735221862793,21.6367244720459,22.849321365356445,24.204254150390625
1759168075.288755,1759168075.2971325,39.16764259338379,4.626035690307617,0.23794174194335938,21.619319915771484,21.857261657714844,26.68929100036621,27.73880958557129
1759168075.329588,1759168075.3396854,35.80164909362793,0.19407272338867188,0.23651123046875,21.37923240661621,21.61574363708496,22.111892700195312,25.107145309448242
1759168075.3655846,1759168075.3744144,38.245439529418945,3.710031509399414,0.24247169494628906,21.668672561645508,21.911144256591797,25.821447372436523,26.883602142333984
1759168075.4040353,1759168075.405353,40.483951568603516,10.859966278076172,0.2377033233642578,21.703004837036133,21.94070816040039,32.84120559692383,33.54787826538086
1759168075.4446402,1759168075.4494476,42.583465576171875,5.56492805480957,0.2410411834716797,21.437883377075195,21.678924560546875,27.414798736572266,28.3660888671875
1759168075.487363,1759168075.4931474,34.778594970703125,0.04029273986816406,0.2396106719970703,21.472692489624023,21.712303161621094,22.091388702392578,23.488759994506836
1759168075.5222838,1759168075.5290825,34.563541412353516,2.3565292358398438,0.26726722717285156,21.606922149658203,21.874189376831055,24.474143981933594,25.710582733154297
1759168075.5574687,1759168075.566811,39.62397575378418,3.0183792114257812,0.23937225341796875,21.492481231689453,21.731853485107422,24.87492561340332,25.760173797607422
1759168075.5972292,1759168075.59849,47.034502029418945,9.83428955078125,0.2467632293701172,21.50106430053711,21.747827529907227,31.61907196044922,32.31358528137207
1759168075.6444042,1759168075.6457217,36.5903377532959,1.0449886322021484,0.24008750915527344,21.724224090576172,21.964311599731445,23.277997970581055,24.476051330566406
1759168075.6811347,1759168075.6847079,34.850120544433594,0.049114227294921875,0.2396106719970703,21.448850631713867,21.688461303710938,22.083520889282227,23.726463317871094
1759168075.7161267,1759168075.7220492,36.40103340148926,0.1685619354248047,0.23746490478515625,21.54994010925293,21.787405014038086,22.257328033447266,24.045467376708984
1759168075.752664,1759168075.7599022,41.0614013671875,0.021219253540039062,0.23698806762695312,21.44622802734375,21.683216094970703,22.038698196411133,23.528575897216797
1759168075.7938645,1759168075.797824,34.94381904602051,0.03409385681152344,0.24127960205078125,21.360397338867188,21.60167694091797,21.97122573852539,24.00493621826172
1759168075.8289444,1759168075.8331115,37.79339790344238,2.6590824127197266,0.24080276489257812,21.555662155151367,21.796464920043945,24.719715118408203,25.919198989868164
1759168075.8668995,1759168075.873176,33.09464454650879,0.6871223449707031,0.24080276489257812,21.59571647644043,21.836519241333008,22.789955139160156,24.203777313232422
1759168075.901368,1759168075.9026442,41.22424125671387,8.94784927368164,0.24366378784179688,21.410703659057617,21.654367446899414,30.644655227661133,31.3720703125
1759168075.942723,1759168075.9495313,31.224727630615234,0.1392364501953125,0.23674964904785156,21.556854248046875,21.793603897094727,22.23658561706543,23.564577102661133
1759168075.9752362,1759168075.976555,47.22166061401367,11.112689971923828,0.23603439331054688,21.44455909729004,21.680593490600586,32.83405303955078,33.547401428222656
1759168076.0229194,1759168076.024609,38.06567192077637,1.5444755554199219,0.23794174194335938,21.470308303833008,21.708250045776367,23.493528366088867,24.789810180664062
1759168076.0611272,1759168076.0642025,28.45907211303711,0.039577484130859375,0.24318695068359375,21.50416374206543,21.747350692749023,22.11904525756836,23.628711700439453
1759168076.0916867,1759168076.0939915,36.68498992919922,8.020877838134766,0.24247169494628906,21.54254913330078,21.78502082824707,29.925823211669922,30.95102310180664
1759168076.1332467,1759168076.1348805,40.01569747924805,5.3119659423828125,0.23818016052246094,21.284818649291992,21.522998809814453,27.039051055908203,28.1984806060791
1759168076.1733983,1759168076.17787,30.546903610229492,0.6091594696044922,0.24652481079101562,21.53182029724121,21.778345108032227,22.66216278076172,24.052858352661133
1759168076.204043,1759168076.2144418,40.52114486694336,1.9688606262207031,0.2472400665283203,21.42810821533203,21.67534828186035,23.84471893310547,24.919509887695312
1759168076.2447517,1759168076.2536664,42.94729232788086,1.5990734100341797,0.24962425231933594,21.381378173828125,21.63100242614746,23.47087860107422,24.94359016418457
1759168076.2889326,1759168076.2928488,31.43453598022461,0.24843215942382812,0.24271011352539062,21.412372589111328,21.65508270263672,22.20773696899414,23.490428924560547
1759168076.320508,1759168076.3217938,46.76008224487305,9.488582611083984,0.247955322265625,21.521806716918945,21.76976203918457,31.381607055664062,32.213449478149414
1759168076.3674147,1759168076.369371,33.63609313964844,0.050067901611328125,0.255584716796875,21.507978439331055,21.76356315612793,22.15433120727539,23.555278778076172
1759168076.4011881,1759168076.4073362,32.03582763671875,0.5316734313964844,0.2396106719970703,21.712303161621094,21.951913833618164,22.78280258178711,24.088621139526367
1759168076.4333668,1759168076.4346786,45.32504081726074,11.115789413452148,0.24271011352539062,21.44145965576172,21.68416976928711,32.846689224243164,33.55574607849121
1759168076.478829,1759168076.4830413,29.728412628173828,1.468658447265625,0.2384185791015625,21.368026733398438,21.6064453125,23.37360382080078,24.5511531829834
1759168076.509053,1759168076.5180473,42.25564002990723,4.529237747192383,0.2422332763671875,21.56376838684082,21.806001663208008,26.463985443115234,27.333498001098633
1759168076.5514011,1759168076.5527012,44.07620429992676,7.988691329956055,0.2410411834716797,21.456480026245117,21.697521209716797,29.72722053527832,30.448198318481445
1759168076.5956638,1759168076.5989342,31.66937828063965,0.04124641418457031,0.2396106719970703,21.466732025146484,21.706342697143555,22.086381912231445,23.541688919067383
1759168076.6318326,1759168076.6363578,35.315752029418945,0.7038116455078125,0.24247169494628906,21.33965492248535,21.58212661743164,22.54939079284668,23.871421813964844
1759168076.6672468,1759168076.6687224,41.02730751037598,6.636619567871094,0.24652481079101562,21.582841873168945,21.82936668395996,28.634309768676758,29.73484992980957
1759168076.7084646,1759168076.7097502,40.55953025817871,4.080772399902344,0.23984909057617188,21.346092224121094,21.585941314697266,25.84528923034668,26.797056198120117
1759168076.7499592,1759168076.7515674,27.576923370361328,0.499725341796875,0.24437904357910156,21.601438522338867,21.84581756591797,22.645235061645508,24.043798446655273
1759168076.7776763,1759168076.7871587,36.17691993713379,2.5184154510498047,0.23937225341796875,21.467208862304688,21.706581115722656,24.436473846435547,25.403976440429688
1759168076.8140507,1759168076.8242311,40.85993766784668,3.7724971771240234,0.23889541625976562,21.553993225097656,21.792888641357422,25.73561668395996,26.63254737854004
1759168076.8550487,1759168076.8562987,46.526432037353516,10.077953338623047,0.2460479736328125,21.636247634887695,21.882295608520508,32.002925872802734,32.7146053314209
1759168076.9017122,1759168076.9043186,32.93442726135254,0.05555152893066406,0.24843215942382812,21.454811096191406,21.703243255615234,22.092342376708984,23.520708084106445
1759168076.934783,1759168076.939006,38.611412048339844,4.126071929931641,0.24318695068359375,21.38972282409668,21.632909774780273,25.994062423706055,27.09054946899414
1759168076.973541,1759168076.9808023,33.039093017578125,0.5147457122802734,0.2453327178955078,21.603107452392578,21.848440170288086,22.66407012939453,23.98371696472168
1759168077.0132675,1759168077.0183415,37.645578384399414,0.7524490356445312,0.24056434631347656,21.389245986938477,21.629810333251953,22.65191078186035,25.530576705932617
1759168077.0510488,1759168077.0563326,35.06350517272949,2.827167510986328,0.3228187561035156,22.35126495361328,22.674083709716797,25.76303482055664,27.074813842773438
1759168077.0875576,1759168077.088835,46.13375663757324,9.092569351196289,0.24652481079101562,21.466732025146484,21.7132568359375,30.847787857055664,31.56423568725586
1759168077.134134,1759168077.1364577,32.63211250305176,0.01621246337890625,0.24628639221191406,21.584272384643555,21.83055877685547,22.180557250976562,23.389101028442383
1759168077.1669068,1759168077.1753025,36.2706184387207,0.1537799835205078,0.2460479736328125,21.508216857910156,21.75426483154297,22.21512794494629,23.92888069152832
1759168077.203365,1759168077.212762,38.249969482421875,0.7834434509277344,0.2377033233642578,21.625041961669922,21.86274528503418,22.927522659301758,25.299787521362305
1759168077.2419236,1759168077.250214,35.204410552978516,1.2443065643310547,0.24771690368652344,21.58951759338379,21.837234497070312,23.32448959350586,24.90687370300293
1759168077.2772543,1759168077.2887638,36.59629821777344,0.8995532989501953,0.24175643920898438,21.4841365814209,21.725893020629883,22.90201187133789,23.972511291503906
1759168077.3139932,1759168077.3157659,37.894487380981445,11.827468872070312,0.240325927734375,21.538496017456055,21.77882194519043,33.64706039428711,34.850358963012695
1759168077.3519838,1759168077.3533194,48.70200157165527,12.109994888305664,0.24819374084472656,21.506786346435547,21.754980087280273,33.90669822692871,34.61623191833496
1759168077.4019086,1759168077.4039595,34.2259407043457,0.03790855407714844,0.23865699768066406,21.382808685302734,21.6214656829834,21.996736526489258,23.8950252532959
1759168077.4366066,1759168077.442159,33.87737274169922,0.14638900756835938,0.2467632293701172,21.541118621826172,21.78788185119629,22.237777709960938,23.455381393432617
1759168077.4707334,1759168077.4764004,35.444021224975586,4.041910171508789,0.2448558807373047,21.717071533203125,21.96192741394043,26.17645263671875,27.146577835083008
1759168077.5089457,1759168077.5102084,42.17696189880371,8.090496063232422,0.24318695068359375,21.449565887451172,21.692752838134766,29.82616424560547,30.545711517333984
1759168077.55153,1759168077.5565236,35.08949279785156,0.021219253540039062,0.24318695068359375,21.64936065673828,21.892547607421875,22.252559661865234,23.654937744140625
1759168077.5867116,1759168077.5936875,40.554046630859375,0.9300708770751953,0.24271011352539062,21.478891372680664,21.721601486206055,22.89605140686035,24.16086196899414
1759168077.627404,1759168077.6320794,30.078411102294922,1.3034343719482422,0.24747848510742188,21.373510360717773,21.620988845825195,23.200035095214844,24.353504180908203
1759168077.6576862,1759168077.6671903,44.61479187011719,4.278659820556641,0.2560615539550781,21.591663360595703,21.84772491455078,26.337623596191406,27.34208106994629
1759168077.7024403,1759168077.709319,39.12615776062012,0.7157325744628906,0.23937225341796875,21.535634994506836,21.775007247924805,22.787809371948242,23.947477340698242
1759168077.7417047,1759168077.7479577,34.447669982910156,0.054836273193359375,0.24318695068359375,21.558284759521484,21.801471710205078,22.194862365722656,23.860931396484375
1759168077.776289,1759168077.7775958,45.60685157775879,8.960723876953125,0.24008750915527344,21.605491638183594,21.845579147338867,30.844449996948242,31.571626663208008
1759168077.822862,1759168077.8251684,28.411388397216797,0.020742416381835938,0.24080276489257812,21.5303897857666,21.77119255065918,22.131681442260742,23.615121841430664
1759168077.8570457,1759168077.8588011,37.37616539001465,4.757881164550781,0.23984909057617188,21.465063095092773,21.704912185668945,26.69668197631836,27.78315544128418
1759168077.895814,1759168077.8974845,38.17486763000488,4.432439804077148,0.23889541625976562,21.52562141418457,21.764516830444336,26.39484405517578,27.328014373779297
1759168077.9341302,1759168077.9396193,35.616159439086914,0.22411346435546875,0.24366378784179688,21.47078514099121,21.714448928833008,22.214412689208984,23.622751235961914
1759168077.9698884,1759168077.9760704,32.990217208862305,1.9621849060058594,0.2377033233642578,21.547317504882812,21.78502082824707,24.045467376708984,25.363922119140625
1759168078.0042589,1759168078.0055583,48.16293716430664,11.104822158813477,0.24580955505371094,21.518468856811523,21.764278411865234,32.90700912475586,33.62584114074707
1759168078.052887,1759168078.0550177,28.085947036743164,0.041484832763671875,0.2410411834716797,21.488428115844727,21.729469299316406,22.113561630249023,23.384571075439453
1759168078.0820901,1759168078.083363,44.98004913330078,10.007143020629883,0.24700164794921875,21.404027938842773,21.651029586791992,31.70037269592285,32.41610527038574
1759168078.1290789,1759168078.1307096,37.87684440612793,0.5037784576416016,0.23984909057617188,21.569013595581055,21.808862686157227,22.61805534362793,24.042367935180664
1759168078.1670938,1759168078.1691694,29.83570098876953,0.03337860107421875,0.24008750915527344,21.53325080871582,21.773338317871094,22.141695022583008,23.75507354736328
1759168078.1970744,1759168078.203215,42.68169403076172,4.60052490234375,0.24008750915527344,21.538734436035156,21.77882194519043,26.548147201538086,28.1827449798584
1759168078.239894,1759168078.245515,31.679391860961914,0.04100799560546875,0.24199485778808594,21.54397964477539,21.785974502563477,22.182226181030273,23.738861083984375
1759168078.272037,1759168078.2788475,36.38863563537598,5.305051803588867,0.2396106719970703,21.587133407592773,21.826744079589844,27.296781539916992,29.072999954223633
1759168078.3085296,1759168078.3098617,43.78032684326172,12.36104965209961,0.24056434631347656,21.78049087524414,22.021055221557617,34.425973892211914,35.14695167541504
1759168078.3524444,1759168078.3565176,41.14866256713867,4.210710525512695,0.23889541625976562,21.469593048095703,21.70848846435547,26.051044464111328,28.11408042907715
1759168078.3937278,1759168078.3986034,29.737472534179688,0.13518333435058594,0.2384185791015625,21.542787551879883,21.781206130981445,22.222280502319336,23.756027221679688
1759168078.4235656,1759168078.4248934,48.72584342956543,12.274503707885742,0.24199485778808594,21.765947341918945,22.00794219970703,34.32512283325195,35.053253173828125
1759168078.4737108,1759168078.475282,28.391122817993164,0.5326271057128906,0.2372264862060547,21.715164184570312,21.952390670776367,22.79067039489746,24.196863174438477
1759168078.5035489,1759168078.5136013,40.50731658935547,0.18548965454101562,0.23794174194335938,21.396875381469727,21.634817123413086,22.132396697998047,24.88851547241211
1759168078.54419,1759168078.5497763,34.84082221984863,2.7458667755126953,0.23436546325683594,21.429777145385742,21.664142608642578,24.65081214904785,25.957345962524414
1759168078.5808809,1759168078.5887468,39.684295654296875,1.939535140991211,0.2396106719970703,21.528244018554688,21.767854690551758,23.952007293701172,26.508808135986328
