Timestamp,ArrivalTime,TotalTime(ms),WaitTime(ms),DecodeTime(ms),InferTime(ms),ServerComputeTime(ms),TotalServer(ms),Total
1759160194.2077734,1759160194.26508,1601.846694946289,0.0324249267578125,11.39688491821289,1525.5906581878662,1536.987543106079,1537.0831489562988,1548.9931106567383
1759160195.8097763,1759160195.8135417,153.8553237915039,0.019788742065429688,0.0896453857421875,142.8966522216797,142.98629760742188,143.06139945983887,143.6781883239746
1759160195.9638093,1759160195.971215,130.8286190032959,0.018596649169921875,0.08034706115722656,115.19122123718262,115.27156829833984,115.3419017791748,115.93270301818848
1759160196.094841,1759160196.0966322,118.38245391845703,0.022411346435546875,0.087738037109375,111.47737503051758,111.56511306762695,111.66906356811523,112.46204376220703
1759160196.213379,1759160196.2185924,145.31469345092773,0.022649765014648438,0.10728836059570312,118.1025505065918,118.2098388671875,118.28994750976562,119.2624568939209
1759160196.3589654,1759160196.3683488,141.2355899810791,0.02193450927734375,0.1354217529296875,116.1353588104248,116.27078056335449,116.3480281829834,117.00844764709473
1759160196.5003917,1759160196.506244,151.63421630859375,0.022172927856445312,0.10132789611816406,140.7487392425537,140.85006713867188,140.93995094299316,141.57366752624512
1759160196.6522288,1759160196.6572838,150.35247802734375,0.020503997802734375,0.1068115234375,140.84744453430176,140.95425605773926,141.04342460632324,141.68596267700195
1759160196.802791,1759160196.8047132,147.3531723022461,0.0209808349609375,0.10037422180175781,126.75881385803223,126.85918807983398,126.94501876831055,127.74109840393066
1759160196.9525943,1759160196.962067,130.04016876220703,0.017642974853515625,0.08463859558105469,118.44849586486816,118.53313446044922,118.59869956970215,119.17853355407715
1759160197.0855997,1759160197.0871813,130.25617599487305,0.016927719116210938,0.07653236389160156,127.44784355163574,127.52437591552734,127.59637832641602,128.15260887145996
1759160197.216016,1759160197.2201521,122.6346492767334,0.016450881958007812,0.08130073547363281,112.29968070983887,112.3809814453125,112.44940757751465,113.04807662963867
1759160197.3388453,1759160197.3422265,124.2682933807373,0.020265579223632812,0.09870529174804688,115.83518981933594,115.93389511108398,116.0135269165039,116.63436889648438
1759160197.4633174,1759160197.5800436,291.33033752441406,0.04363059997558594,0.09512901306152344,151.84903144836426,151.94416046142578,152.09150314331055,165.32063484191895
1759160197.7548385,1759160197.7565901,156.81791305541992,0.020265579223632812,0.09298324584960938,150.32672882080078,150.4197120666504,150.4993438720703,151.12614631652832
1759160197.911879,1759160197.937181,153.8865566253662,0.024080276489257812,0.09298324584960938,120.1009750366211,120.1939582824707,120.30649185180664,135.11419296264648
1759160198.0659888,1759160198.0788236,162.00900077819824,0.020503997802734375,0.09036064147949219,129.46534156799316,129.55570220947266,129.63080406188965,146.4242935180664
1759160198.2286146,1759160198.2463238,142.02165603637695,0.019311904907226562,0.07891654968261719,119.8277473449707,119.90666389465332,120.00441551208496,133.5160732269287
1759160198.370819,1759160198.3725164,105.63421249389648,0.020503997802734375,0.09417533874511719,84.39898490905762,84.49316024780273,84.56921577453613,85.1593017578125
1759160198.480597,1759160198.630655,265.5925750732422,0.1742839813232422,0.08916854858398438,101.48048400878906,101.56965255737305,101.90939903259277,257.23958015441895
1759160198.7464108,1759160198.7536356,79.53381538391113,0.021219253540039062,0.09965896606445312,68.33243370056152,68.43209266662598,68.52221488952637,69.14973258972168
1759160198.8261719,1759160198.831269,70.84894180297852,0.020742416381835938,0.10657310485839844,62.94393539428711,63.05050849914551,63.14253807067871,63.78769874572754
1759160198.8996558,1759160198.9054093,91.43686294555664,0.02574920654296875,0.12278556823730469,71.47884368896484,71.60162925720215,71.6860294342041,72.40009307861328
1759160198.9947307,1759160198.9965189,97.80550003051758,0.02384185791015625,0.102996826171875,91.22109413146973,91.3240909576416,91.40729904174805,92.05770492553711
1759160199.09562,1759160199.183593,232.15699195861816,0.045299530029296875,0.08416175842285156,140.86318016052246,140.9473419189453,141.08705520629883,143.9988613128662
1759160199.3296027,1759160199.3397932,134.95206832885742,0.019311904907226562,0.09369850158691406,120.23544311523438,120.32914161682129,120.41425704956055,121.07586860656738
1759160199.4647489,1759160199.4771078,126.50537490844727,0.02002716064453125,0.08153915405273438,102.88190841674805,102.96344757080078,103.02996635437012,103.64389419555664
1759160199.5965538,1759160199.6132948,143.13721656799316,0.019788742065429688,0.09393692016601562,123.72970581054688,123.82364273071289,123.90470504760742,124.51958656311035
1759160199.739847,1759160199.8402162,230.86214065551758,0.04172325134277344,0.08058547973632812,116.95194244384766,117.03252792358398,117.15507507324219,123.58689308166504
1759160199.9717,1759160199.98515,151.87525749206543,0.021457672119140625,0.1010894775390625,111.49239540100098,111.59348487854004,111.68646812438965,112.3056411743164
1759160200.126517,1759160200.1431684,168.41864585876465,0.022172927856445312,0.10037422180175781,130.62429428100586,130.72466850280762,130.88631629943848,148.30589294433594
1759160200.2995586,1759160200.3046055,264.085054397583,117.33841896057129,0.08678436279296875,125.21743774414062,125.3042221069336,242.84934997558594,243.84093284606934
1759160200.5675733,1759160200.5693316,154.43158149719238,0.019788742065429688,0.0972747802734375,124.72891807556152,124.82619285583496,124.91059303283691,125.52881240844727
1759160200.7266111,1759160200.8525176,250.31447410583496,0.1342296600341797,0.07796287536621094,111.4206314086914,111.49859428405762,111.75966262817383,245.04876136779785
1759160200.9770765,1759160200.9871821,136.6877555847168,0.017404556274414062,0.08177757263183594,108.09016227722168,108.17193984985352,108.24131965637207,108.83545875549316
1759160201.1139438,1759160201.1186683,133.0280303955078,0.021696090698242188,0.0972747802734375,107.64503479003906,107.7423095703125,123.84581565856934,124.48382377624512
1759160201.247152,1759160201.2561765,158.63609313964844,0.016689300537109375,0.080108642578125,127.3500919342041,127.43020057678223,127.50792503356934,128.07822227478027
1759160201.4059947,1759160201.4077857,155.78556060791016,0.018596649169921875,0.08940696716308594,142.74907112121582,142.8384780883789,142.9121494293213,143.54443550109863
1759160201.5619962,1759160201.5642881,166.55755043029785,0.025987625122070312,0.08320808410644531,151.05485916137695,151.1380672454834,160.36415100097656,161.51738166809082
1759160201.7287254,1759160201.7322147,160.26616096496582,0.018358230590820312,0.08225440979003906,143.75782012939453,143.84007453918457,143.98527145385742,156.07643127441406
1759160201.891623,1759160201.8933473,145.97654342651367,0.022172927856445312,0.11157989501953125,142.8837776184082,142.99535751342773,143.0811882019043,143.73779296875
1759160202.0379236,1759160202.0502136,170.05348205566406,0.020265579223632812,0.09107589721679688,136.0299587249756,136.12103462219238,136.20662689208984,155.10988235473633
1759160202.2081554,1759160202.2098567,137.96043395996094,0.018596649169921875,0.08130073547363281,131.18958473205566,131.2708854675293,131.35123252868652,131.9565773010254
1759160202.346301,1759160202.3480437,128.2498836517334,0.018596649169921875,0.08654594421386719,124.44210052490234,124.52864646911621,124.60184097290039,125.20408630371094
1759160202.4747586,1759160202.4792516,123.87275695800781,0.019550323486328125,0.08630752563476562,97.02491760253906,97.11122512817383,97.19014167785645,116.10174179077148
1759160202.5988352,1759160202.6041703,146.79908752441406,0.01811981201171875,0.08678436279296875,132.5528621673584,132.63964653015137,132.72356986999512,133.35037231445312
1759160202.7457952,1759160202.759229,162.76860237121582,0.02002716064453125,0.09846687316894531,145.12395858764648,145.22242546081543,145.31731605529785,145.97749710083008
1759160202.9125898,1759160202.9281163,144.15931701660156,0.02002716064453125,0.08749961853027344,116.38903617858887,116.47653579711914,116.55426025390625,117.16866493225098
1759160203.0569634,1759160203.1596093,233.69383811950684,0.04506111145019531,0.08869171142578125,122.87402153015137,122.96271324157715,123.11911582946777,134.31143760681152
1759160203.2908657,1759160203.3017197,226.45998001098633,0.1270771026611328,0.09393692016601562,113.52896690368652,113.62290382385254,113.87491226196289,121.77538871765137
1759160203.5175316,1759160203.523796,133.09574127197266,0.01811981201171875,0.08082389831542969,107.10263252258301,107.18345642089844,107.26571083068848,107.87391662597656
1759160203.6507957,1759160203.6562219,129.82845306396484,0.019073486328125,0.08034706115722656,120.67627906799316,120.75662612915039,120.83625793457031,121.40488624572754
1759160203.7808223,1759160203.788309,144.74010467529297,0.01811981201171875,0.07581710815429688,130.6133270263672,130.68914413452148,130.76353073120117,131.3345432281494
1759160203.9296489,1759160203.9332104,153.0320644378662,0.01811981201171875,0.08726119995117188,130.92899322509766,131.01625442504883,131.09517097473145,131.70599937438965
1759160204.0829322,1759160204.087349,134.84907150268555,0.019788742065429688,0.13875961303710938,115.86904525756836,116.00780487060547,116.09554290771484,116.78338050842285
1759160204.2179892,1759160204.2198162,140.5811309814453,0.018835067749023438,0.09202957153320312,121.02675437927246,121.11878395080566,121.19460105895996,121.86264991760254
1759160204.3588204,1759160204.3642547,131.32405281066895,0.020503997802734375,0.10466575622558594,121.66070938110352,121.7653751373291,121.86121940612793,122.49207496643066
1759160204.490359,1759160204.4942567,126.63745880126953,0.02193450927734375,0.10418891906738281,121.337890625,121.44207954406738,121.53339385986328,122.1780776977539
1759160204.6171377,1759160204.6222515,144.86145973205566,0.020742416381835938,0.10323524475097656,122.79367446899414,122.89690971374512,123.0471134185791,139.0397548675537
1759160204.7636578,1759160204.7695644,145.96223831176758,0.021696090698242188,0.10180473327636719,138.03482055664062,138.136625289917,138.22245597839355,138.85498046875
1759160204.9126053,1759160204.914203,131.40392303466797,0.017404556274414062,0.07891654968261719,126.2810230255127,126.35993957519531,126.43241882324219,127.00057029724121
1759160205.0442002,1759160205.0512152,146.50821685791016,0.018596649169921875,0.08225440979003906,138.2155418395996,138.29779624938965,138.37575912475586,138.95606994628906
1759160205.1908343,1759160205.1942852,143.72777938842773,0.017404556274414062,0.08153915405273438,134.06825065612793,134.14978981018066,134.2475414276123,134.85312461853027
1759160205.3347816,1759160205.3442574,136.06977462768555,0.019550323486328125,0.09608268737792969,125.28467178344727,125.3807544708252,125.46896934509277,126.07479095458984
1759160205.4726682,1759160205.4782631,132.5356960296631,0.022411346435546875,0.10204315185546875,122.30038642883301,122.40242958068848,122.49302864074707,123.12626838684082
1759160205.606696,1759160205.610209,116.87111854553223,0.02002716064453125,0.09822845458984375,108.57868194580078,108.67691040039062,108.76345634460449,109.38215255737305
1759160205.7244046,1759160205.8300586,212.80860900878906,0.049114227294921875,0.08130073547363281,98.12355041503906,98.2048511505127,98.34647178649902,109.85803604125977
1759160205.937397,1759160205.9417045,97.14126586914062,0.020265579223632812,0.10204315185546875,85.35933494567871,85.46137809753418,85.54601669311523,86.21048927307129
1759160206.0385914,1759160206.0403988,91.98594093322754,0.0209808349609375,0.1201629638671875,82.87167549133301,82.9918384552002,87.83936500549316,88.47379684448242
1759160206.1307974,1759160206.1398537,122.2689151763916,0.022172927856445312,0.1049041748046875,109.6031665802002,109.70807075500488,109.80653762817383,110.47482490539551
1759160206.2532797,1759160206.271144,145.82347869873047,0.019311904907226562,0.08249282836914062,109.80987548828125,109.89236831665039,109.97605323791504,110.6264591217041
1759160206.3992872,1759160206.4041188,129.32920455932617,0.020265579223632812,0.08034706115722656,107.14864730834961,107.22899436950684,107.29193687438965,107.85102844238281
1759160206.528798,1759160206.5305235,137.50791549682617,0.021457672119140625,0.08058547973632812,129.32515144348145,129.40573692321777,129.5604705810547,130.54943084716797
1759160206.6676085,1759160206.6712046,146.96383476257324,0.019073486328125,0.08225440979003906,131.6204071044922,131.70266151428223,131.79254531860352,132.41982460021973
1759160206.8148537,1759160206.8173985,169.1422462463379,0.021696090698242188,0.11086463928222656,141.89410209655762,142.00496673583984,161.2100601196289,162.45508193969727
1759160206.9856367,1759160206.991285,169.9960231781006,0.019311904907226562,0.09584426879882812,139.0554904937744,139.15133476257324,160.2787971496582,160.91680526733398
1759160207.1558373,1759160207.1575155,157.74202346801758,0.020265579223632812,0.08821487426757812,129.61077690124512,129.6989917755127,129.78601455688477,155.49421310424805
1759160207.3137915,1759160207.3155837,152.65965461730957,0.019788742065429688,0.10824203491210938,139.89830017089844,140.00654220581055,140.08688926696777,140.7158374786377
1759160207.4666674,1759160207.4813163,155.77960014343262,0.019550323486328125,0.09942054748535156,134.3405246734619,134.43994522094727,134.51480865478516,135.13851165771484
1759160207.6226785,1759160207.6263185,147.3867893218994,0.018358230590820312,0.07772445678710938,134.72414016723633,134.80186462402344,134.8738670349121,135.47110557556152
1759160207.7718656,1759160207.7791965,158.16783905029297,0.018358230590820312,0.08916854858398438,133.80837440490723,133.8975429534912,133.97455215454102,134.57036018371582
1759160207.930242,1759160207.932021,143.40925216674805,0.018358230590820312,0.08296966552734375,118.22104454040527,118.30401420593262,127.50649452209473,128.13115119934082
1759160208.0739048,1759160208.077753,115.65470695495605,0.019788742065429688,0.1049041748046875,95.53885459899902,95.64375877380371,95.73793411254883,96.3752269744873
1759160208.189727,1759160208.1915662,103.83796691894531,0.023126602172851562,0.11539459228515625,88.85502815246582,88.97042274475098,89.07127380371094,89.74909782409668
1759160208.295651,1759160208.302198,106.58812522888184,0.020265579223632812,0.10752677917480469,95.11995315551758,95.22747993469238,95.31378746032715,95.96753120422363
1759160208.4026735,1759160208.4067996,97.9928970336914,0.0209808349609375,0.10228157043457031,89.34736251831055,89.44964408874512,89.5395278930664,90.20733833312988
1759160208.500886,1759160208.5063353,127.68006324768066,0.024557113647460938,0.12540817260742188,117.4478530883789,117.57326126098633,117.6605224609375,118.35551261901855
1759160208.628799,1759160208.6324103,137.4528408050537,0.020503997802734375,1.15203857421875,112.89501190185547,114.04705047607422,114.17698860168457,114.87698554992676
1759160208.7667174,1759160208.7751524,115.3717041015625,0.021696090698242188,0.10395050048828125,98.31571578979492,98.4196662902832,98.50621223449707,99.11346435546875
1759160208.884287,1759160208.8871586,95.41940689086914,0.018835067749023438,0.07915496826171875,87.69631385803223,87.77546882629395,87.84985542297363,88.41514587402344
1759160208.979874,1759160208.9853325,124.2375373840332,0.020503997802734375,0.09274482727050781,111.07921600341797,111.17196083068848,111.26160621643066,111.87458038330078
1759160209.107111,1759160209.108878,118.5142993927002,0.019311904907226562,0.09012222290039062,110.6867790222168,110.77690124511719,110.86201667785645,111.49311065673828
1759160209.2258317,1759160209.232098,140.22111892700195,0.019550323486328125,0.08511543273925781,109.67564582824707,109.76076126098633,109.84659194946289,110.44764518737793
1759160209.3662968,1759160209.3722413,123.1985092163086,0.020265579223632812,0.10633468627929688,106.3380241394043,106.4443588256836,106.53066635131836,107.17892646789551
1759160209.4897652,1759160209.4964035,99.80082511901855,0.022172927856445312,0.13136863708496094,90.30961990356445,90.44098854064941,90.52515029907227,91.20059013366699
1759160209.5897706,1759160209.5952606,105.62634468078613,0.022411346435546875,0.10418891906738281,89.21551704406738,89.31970596313477,89.40672874450684,90.03734588623047
1759160209.6956754,1759160209.7012684,109.98010635375977,0.021696090698242188,0.10824203491210938,89.92242813110352,90.03067016601562,90.11292457580566,101.82881355285645
1759160209.805883,1759160209.809669,93.39475631713867,0.021696090698242188,0.10943412780761719,88.21821212768555,88.32764625549316,88.42039108276367,89.08438682556152
1759160209.8996346,1759160209.9054017,113.59763145446777,0.020742416381835938,0.1373291015625,96.9393253326416,97.0766544342041,97.15390205383301,97.75829315185547
1759160210.0134451,1759160210.0151672,104.55846786499023,0.018596649169921875,0.09560585021972656,101.63116455078125,101.72677040100098,101.80234909057617,102.43034362792969
1759160210.1205752,1759160210.125162,102.17094421386719,0.019311904907226562,0.08249282836914062,89.13612365722656,89.2186164855957,89.29228782653809,89.89143371582031
1759160210.2266302,1759160210.2283356,109.41314697265625,0.020503997802734375,0.09393692016601562,106.47416114807129,106.5680980682373,106.65488243103027,107.26237297058105
1759160210.3362014,1759160210.345042,135.5445384979248,0.017881393432617188,0.08106231689453125,101.30047798156738,101.38154029846191,101.45878791809082,102.02193260192871
1759160210.4727266,1759160210.477222,116.3032054901123,0.02002716064453125,0.09250640869140625,110.34941673278809,110.44192314147949,110.55660247802734,111.1898422241211
1759160210.5892475,1759160210.5932221,95.3512191772461,0.020265579223632812,0.10347366333007812,82.85069465637207,82.95416831970215,83.02998542785645,83.65201950073242
1759160210.6847425,1759160210.6999662,139.24431800842285,0.023365020751953125,0.10848045349121094,119.09008026123047,119.19856071472168,119.28749084472656,119.92955207824707
1759160210.8285868,1759160210.8346722,197.05796241760254,82.19218254089355,0.09608268737792969,104.66670989990234,104.76279258728027,187.17598915100098,188.3401870727539
1759160211.0258806,1759160211.03836,210.69884300231934,0.1456737518310547,0.10061264038085938,88.31429481506348,88.41490745544434,178.7121295928955,179.58831787109375
1759160211.2367892,1759160211.2480783,141.54386520385742,0.02002716064453125,0.0972747802734375,129.01592254638672,129.11319732666016,129.18591499328613,129.77075576782227
1759160211.3796408,1759160211.3905356,160.6764793395996,0.019788742065429688,0.07963180541992188,142.00282096862793,142.08245277404785,142.1680450439453,142.79770851135254
1759160211.5445783,1759160211.5647354,320.38354873657227,91.76874160766602,0.08702278137207031,96.53902053833008,96.62604331970215,282.5803756713867,295.72105407714844
1759160211.8687978,1759160212.0281935,415.0547981262207,0.1506805419921875,0.08940696716308594,117.034912109375,117.12431907653809,252.2881031036377,259.69457626342773
1759160212.2856522,1759160212.2964811,109.78341102600098,0.023603439331054688,0.1125335693359375,94.77591514587402,94.88844871520996,95.1073169708252,96.0533618927002
1759160212.3966386,1759160212.4083164,136.4445686340332,0.021457672119140625,0.09870529174804688,121.31595611572266,121.4146614074707,121.50812149047852,122.14970588684082
1759160212.537586,1759160212.539933,156.7089557647705,0.022649765014648438,0.09369850158691406,127.31647491455078,127.4101734161377,127.48932838439941,128.1118392944336
1759160212.6945534,1759160212.7002425,134.50074195861816,0.020503997802734375,0.08821487426757812,112.90287971496582,112.9910945892334,113.06905746459961,125.14638900756836
1759160212.8292377,1759160212.9612484,268.07141304016113,0.07772445678710938,0.07462501525878906,119.92025375366211,119.9948787689209,127.92730331420898,245.54204940795898
1759160213.0995584,1759160213.1012306,144.09112930297852,0.02002716064453125,0.0820159912109375,137.91680335998535,137.9988193511963,138.14663887023926,139.12129402160645
1759160213.2438679,1759160213.245685,128.54886054992676,0.021457672119140625,0.09584426879882812,121.00434303283691,121.10018730163574,121.1855411529541,121.79827690124512
1759160213.3727336,1759160213.3861587,110.09001731872559,0.023365020751953125,0.10371208190917969,95.23344039916992,95.3371524810791,95.43156623840332,96.07291221618652
1759160213.4866273,1759160213.4885914,136.00659370422363,0.02193450927734375,0.11134147644042969,120.85294723510742,120.96428871154785,121.04439735412598,121.74129486083984
1759160213.6246343,1759160213.6281872,124.4652271270752,0.020742416381835938,0.10132789611816406,119.57025527954102,119.67158317565918,119.7502613067627,120.3763484954834
1759160213.7494578,1759160213.7552192,128.18121910095215,0.019073486328125,0.09608268737792969,112.1513843536377,112.24746704101562,112.32447624206543,112.93625831604004
1759160213.8778288,1759160213.8852313,142.2865390777588,0.021696090698242188,0.095367431640625,118.92318725585938,119.0185546875,119.10104751586914,119.72236633300781
1759160214.0203247,1759160214.0246403,126.31058692932129,0.018358230590820312,0.08535385131835938,113.10124397277832,113.18659782409668,113.25478553771973,113.8308048248291
1759160214.1468203,1759160214.1484416,126.45483016967773,0.024557113647460938,0.080108642578125,106.5378189086914,106.61792755126953,106.69732093811035,107.28764533996582
1759160214.2734752,1759160214.278176,125.17118453979492,0.018358230590820312,0.08440017700195312,114.52651023864746,114.61091041564941,114.68029022216797,115.2796745300293
1759160214.4016101,1759160214.403247,141.35503768920898,0.018835067749023438,0.0820159912109375,132.54785537719727,132.6298713684082,132.7059268951416,133.30888748168945
1759160214.543193,1759160214.5715408,140.38634300231934,0.025510787963867188,0.10514259338378906,96.75288200378418,96.85802459716797,96.9855785369873,98.29258918762207
1759160214.6838315,1759160214.6883628,107.43141174316406,0.021219253540039062,0.12803077697753906,92.36931800842285,92.49734878540039,92.5910472869873,93.23883056640625
1759160214.7926307,1759160214.7982666,112.93816566467285,0.020265579223632812,0.12135505676269531,96.68469429016113,96.80604934692383,96.88687324523926,97.50986099243164
1759160214.9064317,1759160215.0175538,253.6447048187256,0.13637542724609375,0.08988380432128906,59.644222259521484,59.73410606384277,137.99285888671875,145.00045776367188
1759160215.1645749,1759160215.1662753,115.04840850830078,0.019788742065429688,0.1010894775390625,103.58452796936035,103.68561744689941,103.86109352111816,104.77614402770996
1759160215.281072,1759160215.2890797,143.05925369262695,0.019311904907226562,0.08654594421386719,131.01935386657715,131.10589981079102,131.18338584899902,131.77204132080078
1759160215.42432,1759160215.427305,151.23486518859863,0.019788742065429688,0.07796287536621094,120.32175064086914,120.39971351623535,120.50104141235352,121.4606761932373
1759160215.5757494,1759160215.5773757,103.92117500305176,0.018835067749023438,0.08726119995117188,95.37768363952637,95.46494483947754,95.54624557495117,96.11845016479492
1759160215.6845572,1759160215.7498074,147.07589149475098,0.13780593872070312,0.08654594421386719,66.84422492980957,66.93077087402344,67.2001838684082,138.96822929382324
1759160215.8318307,1759160215.8401725,100.30651092529297,0.02193450927734375,0.10251998901367188,80.68633079528809,80.78885078430176,80.8861255645752,81.55465126037598
1759160215.935635,1759160215.9865303,173.01654815673828,13.000965118408203,0.08702278137207031,96.3590145111084,96.44603729248047,109.69710350036621,158.77556800842285
1759160216.108842,1759160216.1143396,120.71943283081055,0.020742416381835938,0.09870529174804688,94.66099739074707,94.75970268249512,94.83981132507324,95.47996520996094
1759160216.2297633,1759160216.2411067,159.11149978637695,0.019550323486328125,0.09560585021972656,136.5656852722168,136.66129112243652,136.82246208190918,137.67361640930176
1759160216.3890674,1759160216.3932178,145.8733081817627,0.018835067749023438,0.09632110595703125,128.82161140441895,128.91793251037598,129.00209426879883,129.63581085205078
1759160216.5408163,1759160216.5425177,147.8109359741211,0.019311904907226562,0.08082389831542969,135.63942909240723,135.72025299072266,135.80608367919922,136.40379905700684
1759160216.6888168,1759160216.7051842,132.2951316833496,0.019073486328125,0.08153915405273438,103.50799560546875,103.58953475952148,103.668212890625,104.28977012634277
1759160216.822725,1759160216.8262153,112.20741271972656,0.019550323486328125,0.08678436279296875,96.91953659057617,97.00632095336914,97.09334373474121,97.72038459777832
1759160216.9352746,1759160217.0518482,236.34672164916992,0.13589859008789062,0.08463859558105469,104.22611236572266,104.31075096130371,104.5846939086914,227.4322509765625
1759160217.1805885,1759160217.30258,221.6174602508545,0.04673004150390625,0.10061264038085938,93.21451187133789,93.31512451171875,93.45269203186035,94.56300735473633
1759160217.402806,1759160217.4145331,161.8514060974121,0.1308917999267578,0.1010894775390625,65.35792350769043,65.45901298522949,141.1123275756836,142.01951026916504
1759160217.5695784,1759160217.5766098,209.92088317871094,86.77053451538086,0.10251998901367188,110.41140556335449,110.51392555236816,197.51453399658203,198.61459732055664
1759160217.779648,1759160217.8825874,193.32003593444824,3.8933753967285156,0.10061264038085938,82.12423324584961,82.22484588623047,86.69209480285645,183.8243007659912
1759160217.973183,1759160217.9871628,144.45877075195312,0.021457672119140625,0.09894371032714844,125.63157081604004,125.73051452636719,125.81920623779297,126.45339965820312
1759160218.1195507,1759160218.1256495,215.75498580932617,0.029325485229492188,0.10609626770019531,107.88178443908691,107.98788070678711,108.29544067382812,201.68709754943848
1759160218.33959,1759160218.3464687,204.92267608642578,0.1327991485595703,0.09584426879882812,86.13777160644531,86.23361587524414,186.24353408813477,187.0710849761963
1759160218.5466058,1759160218.5509624,139.62030410766602,0.0209808349609375,0.09703636169433594,126.5263557434082,126.62339210510254,126.70302391052246,127.33602523803711
1759160218.6863706,1759160218.6881592,150.75063705444336,0.019311904907226562,0.09965896606445312,147.56226539611816,147.66192436218262,147.74346351623535,148.3771800994873
1759160218.8373406,1759160218.8418696,158.31327438354492,0.022172927856445312,0.10538101196289062,143.56327056884766,143.66865158081055,143.78976821899414,144.73509788513184
1759160218.9993114,1759160219.0055408,235.58545112609863,0.03695487976074219,0.10156631469726562,104.27665710449219,104.37822341918945,104.74181175231934,228.67369651794434
1759160219.2350998,1759160219.2413368,266.12281799316406,0.17070770263671875,0.10919570922851562,122.18689918518066,122.29609489440918,122.61843681335449,141.1125659942627
1759160219.501382,1759160219.5112474,256.2997341156006,0.11181831359863281,0.087738037109375,117.04277992248535,117.13051795959473,237.49446868896484,238.30938339233398
1759160219.757847,1759160219.7690969,150.16961097717285,0.020265579223632812,0.08988380432128906,137.60805130004883,137.69793510437012,137.78281211853027,138.37099075317383
1759160219.9105897,1759160220.0427253,263.64898681640625,0.06389617919921875,0.10800361633300781,116.50323867797852,116.61124229431152,116.75763130187988,130.10406494140625
1759160220.174386,1759160220.1799157,140.73657989501953,0.02002716064453125,0.1163482666015625,131.29496574401855,131.41131401062012,131.48880004882812,132.16757774353027
1759160220.3186224,1759160220.3242612,139.01829719543457,0.018835067749023438,0.08606910705566406,114.73321914672852,114.81928825378418,114.89629745483398,115.48781394958496
1759160220.4578557,1759160220.4615405,125.64992904663086,0.022411346435546875,0.11157989501953125,117.65813827514648,117.76971817016602,117.86222457885742,118.52669715881348
1759160220.5845895,1759160220.5891867,121.64902687072754,0.019788742065429688,0.08916854858398438,111.10186576843262,111.1910343170166,111.26923561096191,111.88316345214844
1759160220.7063575,1759160220.7130387,228.30915451049805,0.028848648071289062,0.08988380432128906,101.75275802612305,101.84264183044434,102.17475891113281,218.60980987548828
1759160220.938608,1759160220.9414523,199.3422508239746,0.04458427429199219,0.08511543273925781,90.96431732177734,91.0494327545166,91.40443801879883,192.99030303955078
1759160221.142967,1759160221.1527824,185.6677532196045,0.018596649169921875,0.09202957153320312,171.92769050598145,172.01972007751465,172.17731475830078,173.06828498840332
1759160221.3288336,1759160221.3306036,151.74198150634766,0.021219253540039062,0.10013580322265625,129.9724578857422,130.07259368896484,130.16390800476074,130.84030151367188
1759160221.4816284,1759160221.4872382,208.98056030273438,88.97280693054199,0.09083747863769531,108.9026927947998,108.9935302734375,198.17543029785156,199.24426078796387
1759160221.690806,1759160221.7064528,262.7708911895752,0.05626678466796875,0.10061264038085938,121.59967422485352,121.70028686523438,122.10488319396973,225.5687713623047
1759160221.9544806,1759160222.064767,352.4589538574219,115.77606201171875,0.08344650268554688,114.7925853729248,114.87603187561035,237.91265487670898,262.4168395996094
1759160222.3071105,1759160222.3088143,153.3956527709961,0.019550323486328125,0.09179115295410156,135.7421875,135.8339786529541,135.93244552612305,136.57116889953613
1759160222.4612992,1759160222.466268,134.66978073120117,0.02002716064453125,0.10848045349121094,117.75588989257812,117.86437034606934,117.95520782470703,118.6072826385498
1759160222.5963326,1759160222.6022706,135.2829933166504,0.05340576171875,0.11181831359863281,107.86175727844238,107.97357559204102,108.09516906738281,128.7679672241211
1759160222.7319853,1759160222.7363079,104.14958000183105,0.020742416381835938,0.10538101196289062,88.81807327270508,88.92345428466797,89.01095390319824,89.78128433227539
1759160222.836335,1759160222.841221,103.23071479797363,0.022411346435546875,0.09965896606445312,95.5810546875,95.68071365356445,95.77131271362305,96.38571739196777
1759160222.9397936,1759160222.9471536,149.76954460144043,0.02193450927734375,0.10371208190917969,134.10568237304688,134.20939445495605,134.29903984069824,134.97376441955566
1759160223.0897148,1759160223.0928347,158.9205265045166,0.017881393432617188,0.07939338684082031,145.41959762573242,145.49899101257324,145.61128616333008,146.2838649749756
1759160223.2488167,1759160223.260308,156.2960147857666,0.02193450927734375,0.10347366333007812,128.21340560913086,128.31687927246094,128.39651107788086,129.0261745452881
1759160223.4066353,1759160223.4251769,167.0093536376953,0.019073486328125,0.07867813110351562,145.57409286499023,145.65277099609375,145.81894874572754,146.74115180969238
1759160223.577658,1759160223.5802395,162.0464324951172,0.022172927856445312,0.09822845458984375,128.65161895751953,128.74984741210938,128.84807586669922,129.47893142700195
1759160223.7398815,1759160223.840065,212.8281593322754,0.14138221740722656,0.08487701416015625,82.50665664672852,82.59153366088867,82.8711986541748,203.48381996154785
1759160223.955591,1759160223.9601555,131.03985786437988,0.019073486328125,0.10156631469726562,123.73614311218262,123.83770942687988,123.92210960388184,124.6192455291748
1759160224.0868208,1759160224.0921478,136.8269920349121,0.01811981201171875,0.08440017700195312,126.85680389404297,126.94120407104492,127.01749801635742,127.60496139526367
1759160224.223877,1759160224.2262886,127.75707244873047,0.021696090698242188,0.09560585021972656,117.04516410827637,117.1407699584961,120.2850341796875,121.04082107543945
1759160224.351852,1759160224.3542159,135.101318359375,0.020265579223632812,0.09512901306152344,121.31810188293457,121.4132308959961,121.5660572052002,122.44296073913574
1759160224.488634,1759160224.495151,145.99275588989258,0.020503997802734375,0.09870529174804688,129.4875144958496,129.58621978759766,129.67491149902344,130.28407096862793
1759160224.63658,1759160224.6422963,141.20173454284668,0.017642974853515625,0.07843971252441406,129.70376014709473,129.78219985961914,129.86302375793457,130.43594360351562
1759160224.781629,1759160224.788102,134.51862335205078,0.018358230590820312,0.08511543273925781,124.56560134887695,124.65071678161621,124.72891807556152,125.35214424133301
1759160224.9163394,1759160225.0394444,269.6995735168457,0.1392364501953125,0.11277198791503906,121.73175811767578,121.84453010559082,130.85556030273438,264.03164863586426
1759160225.1862686,1759160225.188221,163.51795196533203,0.023603439331054688,0.10609626770019531,138.5784149169922,138.68451118469238,138.77558708190918,139.48678970336914
1759160225.350008,1759160225.3518853,134.2024803161621,0.019311904907226562,0.09417533874511719,114.94731903076172,115.04149436950684,115.11898040771484,115.76223373413086
1759160225.4843905,1759160225.4891376,139.56809043884277,0.020265579223632812,0.09059906005859375,130.59425354003906,130.68485260009766,130.8422088623047,131.7293643951416
1759160225.6241403,1759160225.6258738,136.04259490966797,0.019073486328125,0.08940696716308594,123.04830551147461,123.1377124786377,123.22068214416504,123.83866310119629
1759160225.760403,1759160225.7741525,212.752103805542,0.027418136596679688,0.09512901306152344,94.0406322479248,94.13576126098633,94.4375991821289,187.06464767456055
1759160225.9755604,1759160225.9931564,140.11788368225098,0.020742416381835938,0.10037422180175781,103.5768985748291,103.67727279663086,103.74903678894043,104.37202453613281
1759160226.115866,1759160226.1355367,171.26011848449707,0.022172927856445312,0.08082389831542969,125.04982948303223,125.13065338134766,125.23603439331055,128.5266876220703
1759160226.2873094,1759160226.4040868,229.02417182922363,0.1919269561767578,0.08153915405273438,100.43811798095703,100.51965713500977,101.00769996643066,220.05248069763184
1759160226.516513,1759160226.6352806,371.19221687316895,0.14400482177734375,0.10466575622558594,119.65060234069824,119.75526809692383,232.52367973327637,250.08153915405273
1759160226.8878868,1759160226.8948402,252.78282165527344,0.031232833862304688,0.10275840759277344,122.6651668548584,122.76792526245117,123.1071949005127,239.42852020263672
1759160227.1413932,1759160227.1492348,143.2332992553711,0.018835067749023438,0.09274482727050781,112.02383041381836,112.11657524108887,125.32687187194824,126.21212005615234
1759160227.2848113,1759160227.2927308,156.20040893554688,0.019788742065429688,0.08916854858398438,138.79656791687012,138.8857364654541,138.98491859436035,139.70351219177246
1759160227.450726,1759160227.4690208,242.33031272888184,0.03266334533691406,0.10442733764648438,91.39871597290039,91.50314331054688,91.85290336608887,221.4365005493164
1759160227.6932056,1759160227.7062716,164.92104530334473,0.021457672119140625,0.11849403381347656,144.13166046142578,144.25015449523926,144.34218406677246,146.98052406311035
1759160227.8606532,1759160227.8722284,146.31271362304688,0.018835067749023438,0.09417533874511719,113.0669116973877,113.16108703613281,113.36612701416016,114.28523063659668
1759160228.007125,1759160228.0088449,149.28865432739258,0.019550323486328125,0.08988380432128906,141.65949821472168,141.74938201904297,141.83998107910156,142.4717903137207
1759160228.1565564,1759160228.2884722,257.9967975616455,0.156402587890625,0.07915496826171875,107.24973678588867,107.32889175415039,107.67102241516113,250.4568099975586
1759160228.4175954,1759160228.4248302,223.1881618499756,0.10895729064941406,0.08130073547363281,115.1585578918457,115.23985862731934,208.7230682373047,209.51247215270996
1759160228.641159,1759160228.6551056,127.40921974182129,0.019073486328125,0.09751319885253906,104.71391677856445,104.81142997741699,104.90298271179199,105.52072525024414
1759160228.7706332,1759160228.784147,145.4305648803711,0.019788742065429688,0.10395050048828125,118.63517761230469,118.73912811279297,118.83354187011719,119.44866180419922
1759160228.9175806,1759160229.023718,241.45793914794922,0.6983280181884766,0.09870529174804688,117.11859703063965,117.2173023223877,118.09992790222168,220.4427719116211
1759160229.1592638,1759160229.1646435,135.03432273864746,0.020265579223632812,0.10180473327636719,117.16508865356445,117.26689338684082,117.34580993652344,117.96903610229492
1759160229.2945418,1759160229.3070636,138.74530792236328,0.018596649169921875,0.07796287536621094,115.44466018676758,115.52262306213379,115.59844017028809,116.17493629455566
1759160229.435693,1759160229.5330381,213.10043334960938,0.22721290588378906,0.08344650268554688,94.24805641174316,94.33150291442871,94.83861923217773,204.85568046569824
1759160229.650643,1759160229.6566763,248.87323379516602,127.8388500213623,0.09036064147949219,108.17527770996094,108.26563835144043,236.30213737487793,240.631103515625
1759160229.901581,1759160229.9094138,226.7000675201416,0.11944770812988281,0.08487701416015625,95.03340721130371,95.11828422546387,209.09738540649414,209.95092391967773
1759160230.131624,1759160230.2592804,267.88854598999023,0.04267692565917969,0.08630752563476562,122.61390686035156,122.70021438598633,122.82967567443848,132.02500343322754
1759160230.399881,1759160230.413144,144.09828186035156,0.021457672119140625,0.10752677917480469,105.81231117248535,105.91983795166016,105.99565505981445,106.63199424743652
1759160230.544334,1759160230.5551019,133.30745697021484,0.019550323486328125,0.09751319885253906,117.5835132598877,117.68102645874023,117.77162551879883,118.37911605834961
1759160230.6801882,1759160230.6885204,262.7537250518799,0.13494491577148438,0.10085105895996094,119.85635757446289,119.95720863342285,244.72928047180176,245.5899715423584
1759160230.9476454,1759160230.9611797,136.53111457824707,0.022172927856445312,0.11348724365234375,118.41011047363281,118.52359771728516,118.61586570739746,119.27509307861328
1759160231.084384,1759160231.0877614,119.69637870788574,0.019550323486328125,0.09870529174804688,109.03429985046387,109.13300514221191,109.21788215637207,109.88664627075195
1759160231.2042797,1759160231.210059,112.26606369018555,0.018596649169921875,0.08702278137207031,94.81692314147949,94.90394592285156,94.97475624084473,95.53885459899902
1759160231.3167124,1759160231.322119,105.43227195739746,0.016927719116210938,0.07700920104980469,94.00725364685059,94.08426284790039,94.15245056152344,94.74658966064453
1759160231.422334,1759160231.4268901,96.72117233276367,0.017881393432617188,0.07748603820800781,85.76631546020508,85.84380149841309,85.906982421875,86.4250659942627
1759160231.5234976,1759160231.550163,154.2224884033203,0.019311904907226562,0.09679794311523438,110.07428169250488,110.17107963562012,110.25238037109375,110.90207099914551
1759160231.6778755,1759160231.6851215,119.91214752197266,0.020742416381835938,0.09799003601074219,91.04251861572266,91.1405086517334,91.2320613861084,91.87102317810059
1759160231.7979975,1759160231.799834,152.16732025146484,0.020265579223632812,0.09179115295410156,149.0769386291504,149.1687297821045,149.247407913208,149.87850189208984
1759160231.9516275,1759160231.9553108,125.01859664916992,0.020742416381835938,0.08893013000488281,112.58840560913086,112.67733573913574,112.76817321777344,113.39092254638672
1759160232.076871,1759160232.091256,141.7393684387207,0.019550323486328125,0.08678436279296875,120.03183364868164,120.11861801147461,120.21327018737793,120.85580825805664
1759160232.2255714,1759160232.312656,326.3256549835205,116.9126033782959,0.087738037109375,114.88509178161621,114.97282981872559,232.1031093597412,246.17815017700195
1759160232.5520732,1759160232.6856418,268.6889171600342,0.043392181396484375,0.08869171142578125,111.21487617492676,111.30356788635254,111.50884628295898,133.71729850769043
1759160232.8209465,1759160232.8246887,169.19279098510742,0.019788742065429688,0.08058547973632812,140.49053192138672,140.57111740112305,140.6712532043457,141.68524742126465
1759160232.9903622,1759160232.9922283,163.3157730102539,0.019073486328125,0.09894371032714844,134.82999801635742,134.92894172668457,135.00404357910156,135.62297821044922
1759160233.1539822,1759160233.1614592,156.1145782470703,0.03981590270996094,0.10323524475097656,141.89505577087402,141.998291015625,142.17495918273926,142.8673267364502
1759160233.3155444,1759160233.3411784,121.76251411437988,0.020742416381835938,0.09989738464355469,91.24279022216797,91.34268760681152,91.42923355102539,92.05484390258789
1759160233.4415774,1759160233.4518976,269.9084281921387,62.55030632019043,8.127689361572266,70.98650932312012,79.11419868469238,142.08102226257324,247.2093105316162
1759160233.7149632,1759160233.7967293,267.27890968322754,89.36715126037598,0.08749961853027344,85.1893424987793,85.27684211730957,174.87478256225586,189.14008140563965
1759160233.983612,1759160233.991891,166.49627685546875,0.11515617370605469,0.09393692016601562,93.42408180236816,93.51801872253418,147.20582962036133,148.04816246032715
1759160234.1503377,1759160234.1594958,151.29590034484863,0.1304149627685547,0.10538101196289062,67.45243072509766,67.55781173706055,135.01763343811035,135.85925102233887
1759160234.3020408,1759160234.317146,133.54730606079102,0.02002716064453125,0.10061264038085938,93.97220611572266,94.07281875610352,94.15745735168457,117.87295341491699
1759160234.43578,1759160234.4401605,129.042387008667,0.018835067749023438,0.09870529174804688,119.35043334960938,119.44913864135742,119.52900886535645,120.12243270874023
1759160234.5666115,1759160234.5702007,123.02780151367188,0.019311904907226562,0.09131431579589844,96.99416160583496,97.08547592163086,97.1689224243164,115.82279205322266
1759160234.689801,1759160234.6928205,117.41971969604492,0.019788742065429688,0.10395050048828125,105.13043403625488,105.23438453674316,105.3152084350586,105.98111152648926
1759160234.807411,1759160234.8112683,102.7066707611084,0.020265579223632812,0.10323524475097656,90.25883674621582,90.3620719909668,90.4397964477539,91.06731414794922
1759160234.9103217,1759160234.91804,118.47710609436035,0.017642974853515625,0.07891654968261719,109.60888862609863,109.68780517578125,109.75480079650879,110.31103134155273
1759160235.0289595,1759160235.030581,147.80092239379883,0.017642974853515625,0.07581710815429688,144.9277400970459,145.0035572052002,145.07579803466797,145.66373825073242
1759160235.1768868,1759160235.184759,105.86905479431152,0.020503997802734375,0.08940696716308594,86.78603172302246,86.87543869018555,87.02731132507324,87.91017532348633
1759160235.2829554,1759160235.3588498,188.69686126708984,0.03933906555175781,0.09226799011230469,106.32157325744629,106.4138412475586,106.54711723327637,108.58631134033203
1759160235.4718895,1759160235.476896,132.0195198059082,0.020503997802734375,0.10371208190917969,125.52189826965332,125.6256103515625,125.72884559631348,126.41048431396484
1759160235.6041214,1759160235.6111732,150.84552764892578,0.019311904907226562,0.1010894775390625,141.0539150238037,141.15500450134277,141.23845100402832,141.8907642364502
1759160235.7566552,1759160235.7632804,140.91801643371582,0.019073486328125,0.08940696716308594,115.91744422912598,116.00685119628906,116.09148979187012,130.84793090820312
1759160235.8978217,1759160235.9049616,105.83019256591797,0.020265579223632812,0.10728836059570312,95.72696685791016,95.83425521850586,96.03023529052734,96.9693660736084
1759160236.0038848,1759160236.0093756,123.47531318664551,0.022649765014648438,0.12302398681640625,111.61160469055176,111.73462867736816,111.8319034576416,112.47658729553223
1759160236.131746,1759160236.14358,193.0990219116211,0.13256072998046875,0.1049041748046875,85.66403388977051,85.7689380645752,175.9498119354248,176.8794059753418
1759160236.3249953,1759160236.3373694,204.6809196472168,92.8030014038086,0.08130073547363281,84.05375480651855,84.13505554199219,177.1407127380371,186.72585487365723
1759160236.5298412,1759160236.5363855,234.85898971557617,0.11920928955078125,0.08082389831542969,102.48088836669922,102.56171226501465,210.71243286132812,211.4999294281006
1759160236.7648811,1759160236.7684848,213.6852741241455,0.11491775512695312,0.09226799011230469,93.63174438476562,93.72401237487793,199.70107078552246,200.74987411499023
1759160236.9787807,1759160236.9895463,246.901273727417,0.12445449829101562,0.11348724365234375,104.23707962036133,104.35056686401367,224.12800788879395,224.9772548675537
1759160237.2258494,1759160237.2368164,128.93986701965332,0.0667572021484375,0.10514259338378906,112.57648468017578,112.68162727355957,112.8997802734375,114.9451732635498
1759160237.358605,1759160237.360356,143.04327964782715,0.020503997802734375,0.110626220703125,128.42392921447754,128.53455543518066,128.61967086791992,129.23741340637207
1759160237.5018318,1759160237.5162065,164.85309600830078,0.02384185791015625,0.091552734375,146.4252471923828,146.5167999267578,146.62504196166992,148.2682228088379
1759160237.6668572,1759160237.672341,155.26580810546875,0.020265579223632812,0.08296966552734375,136.22069358825684,136.30366325378418,136.3976001739502,137.07423210144043
1759160237.822281,1759160237.823958,145.60294151306152,0.019550323486328125,0.08654594421386719,137.58540153503418,137.67194747924805,137.7549171447754,138.33880424499512
1759160237.9691238,1759160237.9890914,152.80818939208984,0.018596649169921875,0.08177757263183594,129.5309066772461,129.61268424987793,129.69613075256348,130.27691841125488
1759160238.1293993,1759160238.1385224,165.60029983520508,0.023603439331054688,0.11110305786132812,134.1540813446045,134.26518440246582,141.56293869018555,152.6193618774414
1759160238.2952363,1759160238.2993007,147.7501392364502,0.021696090698242188,0.10514259338378906,138.90790939331055,139.01305198669434,139.10555839538574,139.7542953491211
1759160238.4435854,1759160238.5462508,232.04612731933594,5.2490234375,0.09489059448242188,104.39872741699219,104.49361801147461,109.9250316619873,228.26242446899414
1759160238.6765945,1759160238.6817808,126.05619430541992,0.019311904907226562,0.08916854858398438,103.53970527648926,103.62887382507324,113.72828483581543,114.34721946716309
1759160238.8028595,1759160238.8052511,98.17743301391602,0.021696090698242188,0.09679794311523438,87.42403984069824,87.52083778381348,87.60786056518555,88.22274208068848
1759160238.9055488,1759160238.9210994,112.24985122680664,0.01811981201171875,0.07700920104980469,95.53170204162598,95.60871124267578,95.68357467651367,96.24457359313965
1759160239.0196018,1759160239.0241516,121.32525444030762,0.018835067749023438,0.08249282836914062,101.17411613464355,101.2566089630127,112.06889152526855,112.92195320129395
1759160239.144608,1759160239.2330294,239.34364318847656,0.11730194091796875,0.07319450378417969,116.47820472717285,116.55139923095703,116.82724952697754,215.57164192199707
1759160239.3842254,1759160239.3892977,147.33338356018066,0.020742416381835938,0.10037422180175781,116.03474617004395,116.1351203918457,116.22166633605957,116.83130264282227
1759160239.5356503,1759160239.5433147,157.90772438049316,0.020503997802734375,0.11014938354492188,143.32294464111328,143.4330940246582,143.5110569000244,144.1357135772705
1759160239.6937175,1759160239.7043009,161.9267463684082,0.019550323486328125,0.09226799011230469,131.03818893432617,131.13045692443848,131.21509552001953,131.82544708251953
1759160239.8558543,1759160239.8632588,147.01199531555176,0.02002716064453125,0.0934600830078125,124.39107894897461,124.48453903198242,124.56369400024414,125.17666816711426
1759160240.0030625,1759160240.0082202,105.57079315185547,0.020503997802734375,0.09560585021972656,82.62372016906738,82.71932601928711,82.80634880065918,83.41693878173828
1759160240.108844,1759160240.1151533,110.22353172302246,0.022411346435546875,0.09703636169433594,90.65604209899902,90.75307846069336,90.82698822021484,91.45689010620117
1759160240.2192478,1759160240.2250195,105.3011417388916,0.017881393432617188,0.07557868957519531,95.83783149719238,95.91341018676758,95.98135948181152,96.53425216674805
1759160240.3247445,1759160240.32645,113.87801170349121,0.03504753112792969,0.09965896606445312,107.88989067077637,107.98954963684082,108.11543464660645,108.74342918395996
1759160240.4388068,1759160240.444157,143.93377304077148,0.02002716064453125,0.08916854858398438,118.48807334899902,118.57724189758301,118.69478225708008,119.35830116271973
1759160240.5832245,1759160240.5882487,152.80699729919434,0.020265579223632812,0.10800361633300781,125.4270076751709,125.5350112915039,125.63109397888184,126.26457214355469
1759160240.736307,1759160240.7412474,166.37563705444336,0.02384185791015625,0.10704994201660156,145.84732055664062,145.95437049865723,146.04663848876953,158.9059829711914
1759160240.903212,1759160240.9140844,149.42312240600586,0.018596649169921875,0.08726119995117188,114.715576171875,114.80283737182617,114.91656303405762,116.23167991638184
1759160241.0528536,1759160241.0578084,130.93829154968262,0.020503997802734375,0.09059906005859375,116.25266075134277,116.34325981140137,116.42241477966309,117.03252792358398
1759160241.1839712,1759160241.1901436,157.01961517333984,0.04029273986816406,0.10442733764648438,146.88920974731445,146.99363708496094,147.1724510192871,148.0545997619629
1759160241.342586,1759160241.3462837,147.4299430847168,0.019550323486328125,0.08916854858398438,118.93343925476074,119.02260780334473,119.10510063171387,139.56069946289062
1759160241.4901865,1759160241.6175835,258.73374938964844,0.14472007751464844,0.07843971252441406,111.94300651550293,112.02144622802734,112.28823661804199,250.99945068359375
1759160241.7506151,1759160241.7641008,160.64810752868652,0.019788742065429688,0.08559226989746094,145.81727981567383,145.9028720855713,145.98798751831055,146.58474922180176
1759160241.9120657,1759160241.9221885,141.93439483642578,0.020503997802734375,0.09679794311523438,128.97992134094238,129.07671928405762,129.26077842712402,130.1419734954834
1759160242.0577424,1759160242.0673213,151.91197395324707,0.022172927856445312,0.10943412780761719,137.0227336883545,137.1321678161621,137.21966743469238,137.8638744354248
1759160242.209816,1759160242.2280967,166.88203811645508,0.0209808349609375,0.08869171142578125,146.05450630187988,146.14319801330566,146.2268829345703,146.84748649597168
1759160242.3795838,1759160242.382237,125.49352645874023,0.020265579223632812,0.09226799011230469,114.56966400146484,114.66193199157715,114.74871635437012,115.3557300567627
1759160242.5053008,1759160242.5071287,130.27477264404297,0.020503997802734375,0.10657310485839844,121.83880805969238,121.94538116455078,122.03550338745117,122.66802787780762
1759160242.6376371,1759160242.6413367,147.44853973388672,0.021457672119140625,0.11801719665527344,140.7003402709961,140.81835746765137,140.90418815612793,141.52884483337402
1759160242.7852235,1759160242.7869844,164.08419609069824,0.018596649169921875,0.08630752563476562,143.10169219970703,143.1879997253418,143.25952529907227,143.8617706298828
1759160242.9495447,1759160242.9511893,152.01187133789062,0.017404556274414062,0.07915496826171875,139.58978652954102,139.66894149780273,139.76097106933594,140.32888412475586
1759160243.101731,1759160243.10854,159.6815586090088,0.017404556274414062,0.08106231689453125,131.69217109680176,131.7732334136963,131.8645477294922,149.6407985687256
1759160243.2616253,1759160243.268322,132.15351104736328,0.018596649169921875,0.08463859558105469,117.14601516723633,117.23065376281738,117.40732192993164,118.30687522888184
1759160243.395569,1759160243.408444,280.19261360168457,0.03838539123535156,0.09584426879882812,125.89526176452637,125.9911060333252,126.36399269104004,262.9051208496094
1759160243.6759598,1759160243.8099303,272.061824798584,0.12731552124023438,0.08225440979003906,124.62449073791504,124.70674514770508,124.96280670166016,259.30023193359375
1759160243.9525616,1759160243.958619,269.0427303314209,0.03170967102050781,0.09274482727050781,128.23915481567383,128.33189964294434,128.6633014678955,250.09727478027344
1759160244.2265894,1759160244.22867,258.66079330444336,0.026941299438476562,0.08344650268554688,121.31810188293457,121.40154838562012,121.72484397888184,243.24560165405273
1759160244.485415,1759160244.4883187,150.01654624938965,0.0171661376953125,0.07915496826171875,141.27683639526367,141.3559913635254,141.4480209350586,142.09628105163574
1759160244.6395807,1759160244.656847,287.2331142425537,0.05173683166503906,0.09036064147949219,118.81637573242188,118.90673637390137,119.08316612243652,131.46114349365234
1759160244.929593,1759160244.9421785,135.46323776245117,0.020742416381835938,0.102996826171875,110.90970039367676,111.01269721984863,111.10186576843262,111.77873611450195
1759160245.0652878,1759160245.0700452,112.81275749206543,0.020503997802734375,0.10967254638671875,105.06176948547363,105.17144203186035,105.26013374328613,106.1410903930664
1759160245.1783004,1759160245.1832287,121.3541030883789,0.018596649169921875,0.10514259338378906,95.62373161315918,95.72887420654297,95.80445289611816,96.4515209197998
1759160245.2998347,1759160245.3015435,124.91703033447266,0.019311904907226562,0.08702278137207031,106.3833236694336,106.47034645080566,106.5518856048584,107.1617603302002
1759160245.4249432,1759160245.428575,103.27672958374023,0.0209808349609375,0.08797645568847656,98.36864471435547,98.45662117004395,98.53363037109375,99.11179542541504
1759160245.531506,1759160245.5500917,153.05614471435547,0.018358230590820312,0.0762939453125,117.39063262939453,117.46692657470703,117.55084991455078,118.14737319946289
1759160245.684779,1759160245.6866827,99.42197799682617,0.018358230590820312,0.07939338684082031,88.30428123474121,88.38367462158203,88.45210075378418,89.02788162231445
1759160245.7843504,1759160245.7945247,113.19375038146973,0.022172927856445312,0.09298324584960938,87.07761764526367,87.17060089111328,87.35489845275879,88.23347091674805
1759160245.9001565,1759160246.0988595,329.8077583312988,0.05698204040527344,0.09369850158691406,129.65822219848633,129.75192070007324,129.90331649780273,134.97662544250488
1759160246.2301743,1759160246.2342446,142.69089698791504,0.0209808349609375,0.10442733764648438,137.25018501281738,137.35461235046387,137.44473457336426,138.08131217956543
1759160246.3730555,1759160246.3748221,135.58030128479004,0.017881393432617188,0.08630752563476562,132.46798515319824,132.554292678833,132.6274871826172,133.2569122314453
1759160246.509627,1759160246.5142324,132.93099403381348,0.020265579223632812,0.0972747802734375,123.17085266113281,123.26812744140625,123.35371971130371,124.00937080383301
1759160246.642769,1759160246.6482759,153.85198593139648,0.019073486328125,0.08702278137207031,144.4418430328369,144.52886581420898,144.59466934204102,145.15423774719238
1759160246.7968047,1759160246.7984061,148.87166023254395,0.017642974853515625,0.08702278137207031,133.00418853759766,133.09121131896973,133.16726684570312,133.7287425994873
1759160246.9458728,1759160246.955227,150.04539489746094,0.019550323486328125,0.08177757263183594,134.80663299560547,134.8884105682373,134.95993614196777,135.53118705749512
1759160247.0976055,1759160247.1012306,139.97364044189453,0.019311904907226562,0.08511543273925781,129.02426719665527,129.10938262939453,129.1968822479248,129.81152534484863
1759160247.2378886,1759160247.2431939,129.16135787963867,0.019788742065429688,0.09036064147949219,119.04501914978027,119.13537979125977,119.21525001525879,119.83656883239746
1759160247.3672833,1759160247.3714154,117.95663833618164,0.021457672119140625,0.3638267517089844,109.130859375,109.49468612670898,109.58456993103027,110.24928092956543
1759160247.4874227,1759160247.492284,111.13739013671875,0.02002716064453125,0.10728836059570312,104.83050346374512,104.93779182434082,105.02982139587402,105.68523406982422
1759160247.5996563,1759160247.604225,104.00915145874023,0.020742416381835938,0.11348724365234375,89.40887451171875,89.5223617553711,89.60247039794922,90.21902084350586
1759160247.7038097,1759160247.705649,105.47876358032227,0.021696090698242188,0.10609626770019531,92.11230278015137,92.21839904785156,92.31352806091309,92.97394752502441
1759160247.809529,1759160247.8142364,100.12435913085938,0.020265579223632812,0.10561943054199219,88.93704414367676,89.04266357421875,89.1413688659668,89.80059623718262
1759160247.909896,1759160247.9161654,120.65982818603516,0.020265579223632812,0.1068115234375,105.57937622070312,105.68618774414062,105.77988624572754,106.40406608581543
1759160248.0307846,1759160248.0342703,117.7833080291748,0.022649765014648438,0.10395050048828125,103.47247123718262,103.5764217376709,103.67035865783691,104.30455207824707
1759160248.1488197,1759160248.1517134,128.25751304626465,0.022649765014648438,0.10418891906738281,117.3546314239502,117.45882034301758,117.54202842712402,118.34216117858887
1759160248.279887,1759160248.2815309,130.1279067993164,0.02384185791015625,0.08821487426757812,124.58372116088867,124.67193603515625,124.76205825805664,125.41699409484863
1759160248.4102793,1759160248.4161747,145.8277702331543,0.018596649169921875,0.08368492126464844,124.16434288024902,124.24802780151367,124.32694435119629,124.91631507873535
1759160248.5562973,1759160248.5611796,133.28027725219727,0.02002716064453125,0.09107589721679688,119.59171295166016,119.68278884887695,119.77648735046387,120.4073429107666
1759160248.6898258,1759160248.6992657,150.39730072021484,0.019550323486328125,0.09369850158691406,129.6241283416748,129.71782684326172,129.79626655578613,130.4037570953369
1759160248.840636,1759160248.8452413,121.03056907653809,0.02002716064453125,0.102996826171875,109.92741584777832,110.0304126739502,110.12959480285645,110.80408096313477
1759160248.961906,1759160248.9668581,106.08458518981934,0.020265579223632812,0.10967254638671875,93.86515617370605,93.97482872009277,94.06518936157227,94.73919868469238
1759160249.0685575,1759160249.168201,207.05604553222656,0.12540817260742188,0.07867813110351562,99.81918334960938,99.89786148071289,100.15654563903809,198.7133026123047
1759160249.2757995,1759160249.373079,208.7728977203369,0.12683868408203125,0.08940696716308594,100.12435913085938,100.21376609802246,100.48031806945801,189.40138816833496
1759160249.4847672,1759160249.4915822,133.7888240814209,0.018835067749023438,0.08130073547363281,102.99205780029297,103.0733585357666,103.14655303955078,103.72376441955566
1759160249.618729,1759160249.7162058,189.67700004577637,0.4763603210449219,0.08988380432128906,86.91668510437012,87.0065689086914,87.60356903076172,183.85791778564453
1759160249.8087094,1759160249.8957014,252.27856636047363,68.95136833190918,0.09751319885253906,78.10091972351074,78.19843292236328,147.4285125732422,152.94647216796875
1759160250.061145,1759160250.0704997,252.4271011352539,0.1342296600341797,0.10919570922851562,125.55885314941406,125.66804885864258,224.57337379455566,225.41451454162598
1759160250.3165677,1759160250.3193297,104.07137870788574,0.020503997802734375,0.10704994201660156,89.1571044921875,89.2641544342041,89.34974670410156,89.97845649719238
1759160250.4208493,1759160250.425866,129.8067569732666,0.0209808349609375,0.1010894775390625,122.87545204162598,122.97654151916504,123.06666374206543,123.69632720947266
1759160250.5525863,1759160250.5543616,127.05111503601074,0.021696090698242188,0.10514259338378906,118.92509460449219,119.03023719787598,119.1256046295166,119.7817325592041
1759160250.6798244,1759160250.6837907,125.74577331542969,0.021219253540039062,0.0896453857421875,115.05722999572754,115.14687538146973,115.22579193115234,115.82589149475098
1759160250.8057616,1759160250.8083785,171.2169647216797,0.020503997802734375,0.08606910705566406,163.40923309326172,163.49530220031738,163.59591484069824,164.55459594726562
1759160250.9771652,1759160250.978831,114.69531059265137,0.019788742065429688,0.08821487426757812,107.46288299560547,107.55109786987305,108.15048217773438,108.77561569213867
1759160251.0956073,1759160251.097807,159.3482494354248,0.018596649169921875,0.08392333984375,130.08713722229004,130.1710605621338,130.2497386932373,130.89418411254883
1759160251.2550807,1759160251.2573009,113.03091049194336,0.021696090698242188,0.10418891906738281,106.93550109863281,107.0396900177002,107.12790489196777,107.77783393859863
1759160251.3682811,1759160251.3741693,103.49631309509277,0.0209808349609375,0.110626220703125,87.51463890075684,87.62526512145996,87.71157264709473,88.3488655090332
1759160251.4719846,1759160251.480453,117.23470687866211,0.029087066650390625,0.10538101196289062,97.57208824157715,97.67746925354004,97.86415100097656,98.71745109558105
1759160251.5894597,1759160251.596478,130.38158416748047,0.022649765014648438,0.10466575622558594,114.7763729095459,114.88103866577148,114.98165130615234,119.29750442504883
1759160251.7215827,1759160251.728229,88.36555480957031,0.019311904907226562,0.08630752563476562,76.97081565856934,77.0571231842041,77.26168632507324,78.58920097351074
1759160251.8121336,1759160251.8849354,189.985990524292,0.04220008850097656,0.07987022399902344,109.05885696411133,109.13872718811035,109.25722122192383,118.72720718383789
1759160252.0038755,1759160252.012224,62.98542022705078,0.0209808349609375,0.09441375732421875,48.46072196960449,48.55513572692871,48.71702194213867,50.726890563964844
1759160252.0670853,1759160252.0721824,80.52992820739746,0.019550323486328125,0.0934600830078125,69.75674629211426,69.85020637512207,69.91934776306152,70.50061225891113
1759160252.1477406,1759160252.1502595,100.83818435668945,0.021457672119140625,0.09870529174804688,83.04214477539062,83.14085006713867,84.00893211364746,84.63454246520996
1759160252.2488573,1759160252.2548704,172.4085807800293,90.3160572052002,0.07534027099609375,69.14710998535156,69.22245025634766,159.867525100708,161.30828857421875
1759160252.4305823,1759160252.5227916,301.4640808105469,0.14066696166992188,0.0782012939453125,101.54366493225098,101.62186622619629,102.13446617126465,285.54439544677734
1759160252.7375612,1759160252.7392707,150.37202835083008,0.021457672119140625,0.09703636169433594,136.70802116394043,136.80505752563477,136.89398765563965,137.50267028808594
1759160252.8881207,1759160252.9989493,260.61201095581055,0.04291534423828125,0.09322166442871094,131.23059272766113,131.32381439208984,131.56938552856445,136.07335090637207
1759160253.1489258,1759160253.2798915,230.64398765563965,0.0400543212890625,0.08678436279296875,88.02413940429688,88.11092376708984,88.23585510253906,89.45775032043457
1759160253.379788,1759160253.3871853,105.12542724609375,0.021457672119140625,0.09179115295410156,82.0765495300293,82.1683406829834,82.24797248840332,82.9160213470459
1759160253.4854848,1759160253.4906282,124.12595748901367,0.019788742065429688,0.09274482727050781,114.99476432800293,115.08750915527344,115.15998840332031,115.76318740844727
1759160253.6098502,1759160253.616093,147.23587036132812,0.019788742065429688,0.08463859558105469,136.458158493042,136.54279708862305,136.627197265625,137.2241973876953
1759160253.7572744,1759160253.7589934,153.93829345703125,0.019311904907226562,0.08296966552734375,144.4993019104004,144.58227157592773,144.65904235839844,145.27392387390137
1759160253.911447,1759160253.9153576,163.56801986694336,0.019788742065429688,15.513420104980469,119.27580833435059,134.78922843933105,134.87911224365234,135.5113983154297
1759160254.0752118,1759160254.077033,117.45715141296387,0.017404556274414062,0.08058547973632812,95.0782299041748,95.15881538391113,95.25227546691895,95.95298767089844
1759160254.1928844,1759160254.2021554,136.75642013549805,0.021219253540039062,0.10037422180175781,99.9755859375,100.07596015930176,100.16345977783203,113.10982704162598
1759160254.3298316,1759160254.3315852,100.80838203430176,0.019550323486328125,0.09608268737792969,87.99910545349121,88.09518814086914,88.29617500305176,89.51544761657715
1759160254.4316545,1759160254.4441445,134.28664207458496,0.021696090698242188,0.11038780212402344,118.9725399017334,119.08292770385742,119.17304992675781,119.8275089263916
1759160254.5661373,1759160254.578181,137.45951652526855,0.021457672119140625,0.1049041748046875,113.52682113647461,113.6317253112793,113.72923851013184,114.39013481140137
1759160254.7043207,1759160254.714622,91.55917167663574,0.022411346435546875,0.1049041748046875,71.0597038269043,71.16460800170898,71.37489318847656,72.66521453857422
1759160254.7986712,1759160254.8060396,109.25936698913574,0.017404556274414062,0.08511543273925781,83.10723304748535,83.19234848022461,83.27817916870117,97.89586067199707
1759160254.908095,1759160254.917064,105.53193092346191,0.018596649169921875,0.0896453857421875,90.6679630279541,90.75760841369629,90.83342552185059,91.39752388000488
1759160255.0138192,1759160255.019155,106.78243637084961,0.019073486328125,0.0934600830078125,90.17586708068848,90.26932716369629,100.37875175476074,100.98695755004883
1759160255.123612,1759160255.1277373,108.50095748901367,0.020265579223632812,0.087738037109375,92.9555892944336,93.04332733154297,93.13058853149414,93.73283386230469
1759160255.233644,1759160255.2381558,121.9184398651123,0.018596649169921875,0.09083747863769531,100.07619857788086,100.16703605651855,100.24499893188477,112.11156845092773
1759160255.355967,1759160255.364271,138.24224472045898,0.020503997802734375,0.10633468627929688,125.52237510681152,125.62870979309082,125.7181167602539,126.34134292602539
1759160255.4966154,1759160255.5002544,133.44740867614746,0.022411346435546875,0.10013580322265625,124.94063377380371,125.04076957702637,125.13065338134766,125.78248977661133
1759160255.633647,1759160255.6589146,144.69599723815918,0.023126602172851562,0.09441375732421875,117.71082878112793,117.80524253845215,117.98954010009766,139.18566703796387
1759160255.7785335,1759160255.8961318,245.35560607910156,0.044345855712890625,0.08797645568847656,118.5922622680664,118.68023872375488,118.79396438598633,127.76517868041992
1759160256.026613,1759160256.034231,122.58458137512207,0.019788742065429688,0.08535385131835938,110.06355285644531,110.14890670776367,110.24212837219238,110.87417602539062
1759160256.1511543,1759160256.15695,98.81114959716797,0.019311904907226562,0.09632110595703125,89.50662612915039,89.60294723510742,89.77913856506348,90.67225456237793
1759160256.2501473,1759160256.2531579,123.49677085876465,0.020503997802734375,0.08416175842285156,107.46645927429199,107.55062103271484,107.63216018676758,108.3521842956543
1759160256.3738422,1759160256.3818696,143.16821098327637,0.02002716064453125,0.08344650268554688,114.29047584533691,114.37392234802246,114.48049545288086,129.8055648803711
1759160256.5172017,1759160256.518948,134.45138931274414,0.020503997802734375,0.09965896606445312,126.48415565490723,126.58381462097168,126.67274475097656,127.29811668395996
1759160256.6517956,1759160256.6577368,138.24844360351562,0.02193450927734375,0.11110305786132812,112.69259452819824,112.80369758605957,112.89525032043457,113.60001564025879
1759160256.7903824,1759160256.7956,96.27389907836914,0.022411346435546875,0.10418891906738281,88.18984031677246,88.29402923583984,88.38534355163574,89.03264999389648
1759160256.8906574,1759160256.8925176,92.32068061828613,0.024557113647460938,0.1087188720703125,87.16797828674316,87.27669715881348,87.3720645904541,88.00935745239258
1759160256.983309,1759160257.0018008,94.52104568481445,0.02193450927734375,0.10371208190917969,66.96081161499023,67.06452369689941,67.14653968811035,67.86489486694336
1759160257.0783596,1759160257.0858812,98.60658645629883,0.019550323486328125,0.11086463928222656,73.38857650756836,73.49944114685059,73.59194755554199,74.22685623168945
1759160257.1771333,1759160257.2520335,270.9221839904785,92.28515625,0.09059906005859375,88.80853652954102,88.89913558959961,181.39076232910156,196.81906700134277
1759160257.4529927,1759160257.459694,100.74949264526367,0.017881393432617188,0.07987022399902344,88.93418312072754,89.01405334472656,89.09058570861816,89.66207504272461
1759160257.556267,1759160257.5591424,97.15938568115234,0.017881393432617188,0.08869171142578125,93.02949905395508,93.11819076538086,93.20354461669922,93.79792213439941
1759160257.6537905,1759160257.6581776,87.18037605285645,0.021457672119140625,0.10085105895996094,79.76675033569336,79.86760139465332,79.9410343170166,80.74426651000977
1759160257.7427227,1759160257.7521439,135.31017303466797,0.020265579223632812,0.09965896606445312,103.70039939880371,103.80005836486816,103.89065742492676,104.54487800598145
1759160257.882543,1759160257.8862748,143.0349349975586,0.020503997802734375,0.10156631469726562,114.70365524291992,114.80522155761719,114.8984432220459,115.51523208618164
1759160258.0257757,1759160258.158841,211.86017990112305,0.046253204345703125,0.10371208190917969,71.52438163757324,71.62809371948242,71.77090644836426,87.63313293457031
1759160258.2378447,1759160258.2420487,126.72281265258789,0.020265579223632812,0.1049041748046875,101.91535949707031,102.020263671875,102.11396217346191,102.75578498840332
1759160258.3647745,1759160258.3701866,125.99754333496094,0.019073486328125,0.09036064147949219,116.10031127929688,116.19067192077637,116.2874698638916,116.92237854003906
1759160258.4910047,1759160258.496515,109.67183113098145,0.03337860107421875,0.1087188720703125,92.8196907043457,92.92840957641602,93.02139282226562,95.89409828186035
1759160258.6007974,1759160258.6042387,96.94933891296387,0.0209808349609375,0.09608268737792969,88.93442153930664,89.03050422668457,89.10489082336426,89.71166610717773
1759160258.698087,1759160258.7031631,100.63791275024414,0.019550323486328125,0.08082389831542969,89.49875831604004,89.57958221435547,89.64872360229492,90.2249813079834
1759160258.8005898,1759160258.8040435,111.96637153625488,0.01811981201171875,0.08296966552734375,98.69217872619629,98.77514839172363,98.84786605834961,99.44772720336914
1759160258.913519,1759160258.9171333,98.06203842163086,0.01811981201171875,0.08869171142578125,89.47920799255371,89.56789970397949,89.64776992797852,90.21639823913574
1759160259.0118184,1759160259.0172563,111.34099960327148,0.020503997802734375,0.13399124145507812,104.49695587158203,104.63094711303711,104.71892356872559,105.3473949432373
1759160259.1233006,1759160259.1283307,111.36913299560547,0.022172927856445312,0.1068115234375,87.85462379455566,87.96143531799316,88.06109428405762,88.7303352355957
1759160259.234917,1759160259.2402966,102.65111923217773,0.022411346435546875,0.1220703125,85.54577827453613,85.66784858703613,85.74748039245605,86.37356758117676
1759160259.3377733,1759160259.3432627,129.80365753173828,0.022411346435546875,0.118255615234375,117.75636672973633,117.8746223449707,118.04747581481934,118.7131404876709
1759160259.4696584,1759160259.4714458,110.44526100158691,0.025987625122070312,0.09417533874511719,103.8823127746582,103.97648811340332,104.08210754394531,104.68530654907227
1759160259.5802917,1759160259.585214,133.46338272094727,0.020742416381835938,0.09584426879882812,120.0716495513916,120.16749382019043,120.26453018188477,120.87678909301758
1759160259.7139544,1759160259.7157607,124.07851219177246,0.021457672119140625,0.10251998901367188,110.82100868225098,110.92352867126465,111.01293563842773,111.65952682495117
1759160259.8415942,1759160259.8442667,118.70265007019043,0.02193450927734375,0.09965896606445312,110.1992130279541,110.29887199401855,110.38923263549805,111.0074520111084
1759160259.9604995,1759160259.9694736,140.44690132141113,0.020742416381835938,0.08463859558105469,109.63916778564453,109.72380638122559,109.80081558227539,127.47526168823242
1759160260.104626,1759160260.106248,95.08180618286133,0.019788742065429688,0.07987022399902344,81.35437965393066,81.43424987792969,81.51078224182129,82.08012580871582
1759160260.1998796,1759160260.20152,133.75473022460938,0.019073486328125,0.07748603820800781,114.79854583740234,114.87603187561035,120.89729309082031,121.49953842163086
1759160260.3338332,1759160260.3354437,118.31378936767578,0.025987625122070312,0.0858306884765625,109.51852798461914,109.6043586730957,109.69233512878418,110.26453971862793
1759160260.4522872,1759160260.4593482,136.3534927368164,0.01811981201171875,0.07891654968261719,119.8434829711914,119.92239952087402,120.0246810913086,125.56171417236328
1759160260.5888314,1759160260.5962112,131.13760948181152,0.019311904907226562,0.09107589721679688,118.50547790527344,118.59655380249023,118.6830997467041,119.28033828735352
1759160260.7295923,1759160260.7472775,176.35393142700195,0.020265579223632812,0.10609626770019531,127.99334526062012,128.0994415283203,146.05331420898438,146.7421054840088
1759160260.9068487,1759160260.915635,261.04140281677246,113.69514465332031,0.09107589721679688,131.0741901397705,131.1652660369873,245.0714111328125,247.755765914917
1759160261.168052,1759160261.298483,250.9286403656006,0.133514404296875,0.07843971252441406,98.72722625732422,98.80566596984863,99.07245635986328,244.13776397705078
1759160261.4265702,1759160261.4341924,154.33454513549805,0.018835067749023438,0.0820159912109375,145.46489715576172,145.54691314697266,145.63369750976562,146.22974395751953
1759160261.5810695,1759160261.5873067,255.56254386901855,0.02765655517578125,0.07915496826171875,116.20354652404785,116.28270149230957,116.62721633911133,239.64333534240723
1759160261.837409,1759160261.848431,149.56092834472656,0.021457672119140625,0.11372566223144531,118.79682540893555,118.91055107116699,119.00019645690918,135.32042503356934
1759160261.987403,1759160261.9928918,164.26897048950195,0.021696090698242188,0.11610984802246094,143.85604858398438,143.97215843200684,144.06204223632812,144.7124481201172
1759160262.1601217,1759160262.1716325,274.83296394348145,130.8739185333252,0.1270771026611328,113.85345458984375,113.98053169250488,259.02366638183594,260.4649066925049
1759160262.4409118,1759160262.5664775,261.0805034637451,0.12826919555664062,0.07987022399902344,114.71343040466309,114.79330062866211,130.07521629333496,247.8477954864502
1759160262.7065651,1759160262.7162428,156.36253356933594,0.019073486328125,0.080108642578125,142.55189895629883,142.63200759887695,142.70734786987305,143.28336715698242
1759160262.8672051,1759160262.8689463,160.0332260131836,0.020742416381835938,0.08392333984375,134.12809371948242,134.21201705932617,134.29903984069824,134.89580154418945
1759160263.0274293,1759160263.0361285,153.7322998046875,0.019550323486328125,0.09655952453613281,143.72611045837402,143.82266998291016,143.90206336975098,144.51980590820312
1759160263.1812923,1759160263.1829886,169.67272758483887,0.016450881958007812,0.08678436279296875,155.64441680908203,155.731201171875,155.8072566986084,156.4188003540039
1759160263.3552113,1759160263.3569636,152.74572372436523,0.021457672119140625,0.0934600830078125,137.49408721923828,137.5875473022461,137.6779079437256,138.29755783081055
1759160263.5081515,1759160263.5320804,169.8920726776123,0.027179718017578125,0.09512901306152344,137.71796226501465,137.81309127807617,137.90512084960938,158.48398208618164
1759160263.6781828,1759160263.679927,159.4400405883789,0.018358230590820312,0.0858306884765625,151.07345581054688,151.15928649902344,151.30114555358887,153.411865234375
1759160263.839569,1759160263.8412004,142.3811912536621,0.019550323486328125,0.08392333984375,137.18509674072266,137.2690200805664,137.41326332092285,138.22436332702637
1759160263.9846756,1759160263.9864287,156.16512298583984,0.019311904907226562,0.09846687316894531,147.629976272583,147.72844314575195,147.8888988494873,148.7751007080078
1759160264.1436195,1759160264.2761126,393.0854797363281,0.05030632019042969,0.08487701416015625,121.22321128845215,121.3080883026123,121.69790267944336,247.8809356689453
1759160264.5405974,1759160264.5565438,95.05271911621094,0.023365020751953125,0.11396408081054688,71.50578498840332,71.61974906921387,71.8538761138916,73.26936721801758
1759160264.6357946,1759160264.640543,101.77922248840332,0.022411346435546875,0.102996826171875,92.87261962890625,92.97561645507812,93.05572509765625,93.70136260986328
1759160264.7378354,1759160264.7435224,82.24987983703613,0.0247955322265625,0.10704994201660156,63.858747482299805,63.965797424316406,64.0413761138916,64.69368934631348
1759160264.8236184,1759160264.8252635,70.59621810913086,0.020265579223632812,0.09942054748535156,60.24742126464844,60.34684181213379,60.42361259460449,61.02275848388672
1759160264.894453,1759160264.8992798,80.10005950927734,0.022172927856445312,0.10633468627929688,65.48571586608887,65.59205055236816,65.68646430969238,66.3139820098877
1759160264.9752674,1759160264.9769826,100.74615478515625,0.020503997802734375,0.10204315185546875,92.42129325866699,92.52333641052246,92.60249137878418,93.23978424072266
1759160265.0775514,1759160265.084894,92.90003776550293,0.0209808349609375,0.09679794311523438,57.24740028381348,57.34419822692871,57.48343467712402,65.44375419616699
1759160265.170634,1759160265.187225,226.72700881958008,0.10919570922851562,0.08082389831542969,84.39111709594727,84.4719409942627,207.3040008544922,208.09435844421387
1759160265.3975437,1759160265.400654,102.04195976257324,0.022411346435546875,0.10013580322265625,93.19019317626953,93.29032897949219,93.38712692260742,94.63667869567871
1759160265.500534,1759160265.5054474,101.28474235534668,0.03910064697265625,0.11229515075683594,88.88077735900879,88.99307250976562,89.12181854248047,89.73884582519531
1759160265.6020653,1759160265.6072898,123.0313777923584,0.022649765014648438,0.10800361633300781,115.94533920288086,116.05334281921387,116.1355972290039,116.79530143737793
1759160265.728624,1759160265.7304018,128.81779670715332,0.020742416381835938,0.12874603271484375,111.48428916931152,111.61303520202637,111.70053482055664,112.3664379119873
1759160265.8576858,1759160265.8622487,130.0978660583496,0.020742416381835938,0.10800361633300781,114.55321311950684,114.66121673583984,114.75062370300293,115.38100242614746
1759160265.9916568,1759160265.9972942,121.90961837768555,0.02193450927734375,0.10895729064941406,113.16919326782227,113.27815055847168,113.38520050048828,114.05301094055176
1759160266.1138065,1759160266.1191964,107.35225677490234,0.019311904907226562,0.09965896606445312,97.01204299926758,97.11170196533203,97.19491004943848,97.81932830810547
1759160266.2213054,1759160266.225533,98.94704818725586,0.024080276489257812,0.10824203491210938,89.99776840209961,90.10601043701172,90.20614624023438,90.93785285949707
1759160266.3204994,1759160266.3254108,141.72935485839844,0.021219253540039062,0.11420249938964844,131.96396827697754,132.0781707763672,132.1702003479004,132.80820846557617
1759160266.4624476,1759160266.46425,150.6342887878418,0.04029273986816406,0.08869171142578125,143.67914199829102,143.7678337097168,143.873929977417,144.5016860961914
1759160266.6133115,1759160266.629217,123.46816062927246,0.018358230590820312,0.08726119995117188,95.79849243164062,95.8857536315918,95.95417976379395,96.52471542358398
1759160266.7369685,1759160266.742224,95.22318840026855,0.021696090698242188,0.09489059448242188,84.86437797546387,84.95926856994629,85.04128456115723,85.63780784606934
1759160266.8323915,1759160266.8421185,106.46986961364746,0.020742416381835938,0.09822845458984375,85.91008186340332,86.00831031799316,86.08722686767578,86.72404289245605
1759160266.9390643,1759160266.9422643,109.83133316040039,0.019788742065429688,0.087738037109375,91.85576438903809,91.94350242614746,92.02337265014648,92.6203727722168
1759160267.0490928,1759160267.0581334,136.5640163421631,0.020265579223632812,0.09489059448242188,120.52273750305176,120.61762809753418,120.7127571105957,121.39225006103516
1759160267.1858184,1759160267.19033,103.76405715942383,0.021219253540039062,0.10538101196289062,95.14713287353516,95.25251388549805,95.34525871276855,95.977783203125
1759160267.2898183,1759160267.2961426,109.30132865905762,0.021457672119140625,0.1392364501953125,101.4413833618164,101.58061981201172,101.67407989501953,102.32138633728027
1759160267.4016633,1759160267.4082444,105.55267333984375,0.023126602172851562,0.11181831359863281,93.5509204864502,93.66273880004883,93.75762939453125,94.43545341491699
1759160267.5074434,1759160267.5123072,101.75609588623047,0.020742416381835938,0.10967254638671875,83.37044715881348,83.4801197052002,83.55569839477539,84.19394493103027
1759160267.6093798,1759160267.6181178,115.42916297912598,0.020742416381835938,0.10776519775390625,105.29351234436035,105.40127754211426,105.47971725463867,106.14585876464844
1759160267.725624,1759160267.734193,145.94554901123047,0.021457672119140625,0.08487701416015625,132.24387168884277,132.32874870300293,132.41219520568848,133.05187225341797
1759160267.8718007,1759160267.8872273,137.42828369140625,0.02002716064453125,0.08821487426757812,120.75352668762207,120.84174156188965,120.91374397277832,121.4907169342041
1759160268.0105956,1759160268.0152006,124.96018409729004,0.020265579223632812,0.09608268737792969,116.35756492614746,116.45364761352539,116.54138565063477,117.14935302734375
1759160268.135749,1759160268.1411657,116.76216125488281,0.02002716064453125,0.09202957153320312,99.96509552001953,100.05712509155273,100.13675689697266,110.86630821228027
1759160268.2526882,1759160268.2575672,110.89968681335449,0.02288818359375,0.0858306884765625,95.08776664733887,95.17359733581543,95.26896476745605,95.87860107421875
1759160268.3638096,1759160268.3692477,139.81318473815918,0.0209808349609375,0.10323524475097656,123.42548370361328,123.52871894836426,123.6259937286377,124.2828369140625
1759160268.5038717,1759160268.5079296,143.2487964630127,0.021696090698242188,0.11181831359863281,133.9130401611328,134.02485847473145,134.11521911621094,134.73796844482422
1759160268.64726,1759160268.649053,160.00127792358398,0.018596649169921875,0.08654594421386719,147.25518226623535,147.34172821044922,147.42445945739746,148.1022834777832
1759160268.8075264,1759160268.8192835,160.69960594177246,0.020503997802734375,0.09298324584960938,128.18551063537598,128.2784938812256,128.36289405822754,128.96466255187988
1759160268.9685798,1759160268.9732847,136.97528839111328,0.020265579223632812,0.09393692016601562,124.84550476074219,124.9394416809082,125.01692771911621,125.62441825866699
1759160269.1057565,1759160269.107405,96.35639190673828,0.020503997802734375,0.10323524475097656,90.40379524230957,90.50703048706055,90.58594703674316,91.19749069213867
1759160269.2046144,1759160269.2091625,99.26271438598633,0.019311904907226562,0.08106231689453125,93.55926513671875,93.64032745361328,93.70899200439453,94.26641464233398
1759160269.3045354,1759160269.3092415,92.44680404663086,0.020742416381835938,0.09989738464355469,78.72891426086426,78.82881164550781,78.89175415039062,79.4990062713623
1759160269.397323,1759160269.4061098,105.23295402526855,0.019311904907226562,0.08630752563476562,88.26923370361328,88.35554122924805,88.43326568603516,89.02978897094727
1759160269.5027282,1759160269.5051274,104.86984252929688,0.019788742065429688,0.08368492126464844,88.55056762695312,88.63425254821777,88.71698379516602,89.30063247680664
1759160269.6078105,1759160269.610253,102.19240188598633,0.02002716064453125,0.11157989501953125,86.86661720275879,86.97819709777832,87.05735206604004,87.67461776733398
1759160269.7186172,1759160269.7304318,276.7374515533447,126.88112258911133,0.09012222290039062,124.15361404418945,124.24373626708984,251.3427734375,252.3059844970703
1759160269.9955251,1759160270.0104077,268.7034606933594,116.03999137878418,7.128715515136719,125.01263618469238,132.1413516998291,248.38662147521973,249.4351863861084
1759160270.2643833,1759160270.272646,236.9542121887207,0.04029273986816406,0.13971328735351562,124.42135810852051,124.56107139587402,124.69363212585449,225.5258560180664
1759160270.5025918,1759160270.5072021,144.35482025146484,0.018596649169921875,0.08344650268554688,135.24436950683594,135.32781600952148,135.43009757995605,136.01970672607422
1759160270.648845,1759160270.657554,156.04329109191895,0.04267692565917969,0.0972747802734375,73.50993156433105,73.60720634460449,73.7466812133789,74.9356746673584
1759160270.812178,1759160270.8939886,328.7017345428467,0.13184547424316406,0.07772445678710938,115.21792411804199,115.2956485748291,240.72837829589844,245.01633644104004
1759160271.1476,1759160271.2948754,226.4091968536377,0.1735687255859375,0.08034706115722656,74.64790344238281,74.72825050354004,75.37984848022461,214.42151069641113
1759160271.3797023,1759160271.4678707,198.51446151733398,0.22125244140625,0.09179115295410156,91.01223945617676,91.10403060913086,102.65302658081055,183.38704109191895
1759160271.5784159,1759160271.583239,150.20084381103516,0.0209808349609375,0.095367431640625,133.89229774475098,133.9876651763916,134.06610488891602,144.7598934173584
1759160271.728762,1759160271.7305753,167.23060607910156,0.02193450927734375,0.10919570922851562,159.53993797302246,159.64913368225098,159.72661972045898,161.74817085266113
1759160271.8996341,1759160271.903664,146.53348922729492,0.020503997802734375,0.08893013000488281,136.57450675964355,136.66343688964844,136.7502212524414,137.41397857666016
1759160272.046313,1759160272.052393,271.96288108825684,0.041484832763671875,5.642890930175781,117.33055114746094,122.97344207763672,123.12674522399902,125.77652931213379
1759160272.3215928,1759160272.3238425,149.23810958862305,0.019073486328125,0.08940696716308594,124.47834014892578,124.56774711608887,124.65643882751465,125.24533271789551
1759160272.471076,1759160272.473033,150.54559707641602,0.0209808349609375,0.10752677917480469,138.3829116821289,138.4904384613037,138.57531547546387,139.21117782592773
1759160272.621761,1759160272.757611,283.344030380249,0.041484832763671875,0.09322166442871094,143.01609992980957,143.10932159423828,143.23854446411133,144.53721046447754
1759160272.9052994,1759160272.9102519,128.12447547912598,0.0209808349609375,0.12350082397460938,103.64174842834473,103.76524925231934,103.84225845336914,104.50983047485352
1759160273.0346286,1759160273.0391827,99.98965263366699,0.019550323486328125,0.09846687316894531,89.9803638458252,90.07883071899414,90.15679359436035,94.80547904968262
1759160273.134758,1759160273.144168,103.17420959472656,0.021696090698242188,0.10323524475097656,84.8550796508789,84.95831489562988,85.04557609558105,85.67380905151367
1759160273.2445507,1759160273.2472508,97.19133377075195,0.021219253540039062,0.09799003601074219,91.29118919372559,91.38917922973633,91.46261215209961,92.1030044555664
1759160273.3445961,1759160273.346295,126.19519233703613,0.021219253540039062,0.08463859558105469,104.81739044189453,104.90202903747559,104.98833656311035,113.32273483276367
1759160273.470958,1759160273.4793582,208.12106132507324,0.030994415283203125,0.10013580322265625,84.80525016784668,84.90538597106934,85.22796630859375,181.60557746887207
1759160273.6817715,1759160273.797614,319.0000057220459,0.14448165893554688,0.0972747802734375,97.10216522216797,97.1994400024414,196.26522064208984,205.99794387817383
1759160274.001161,1759160274.0204515,217.37170219421387,0.16117095947265625,0.09489059448242188,92.17262268066406,92.26751327514648,186.32030487060547,187.13951110839844
1759160274.230916,1759160274.2326536,136.64627075195312,0.02193450927734375,0.09655952453613281,110.42189598083496,110.5184555053711,110.61310768127441,128.2796859741211
1759160274.3677473,1759160274.3694513,98.19889068603516,0.02765655517578125,0.09226799011230469,90.66629409790039,90.7585620880127,90.84725379943848,91.45951271057129
1759160274.4715528,1759160274.4744573,154.0818214416504,0.057697296142578125,0.10371208190917969,64.51296806335449,64.61668014526367,65.02437591552734,145.0045108795166
1759160274.6258132,1759160274.631607,213.58728408813477,0.11491775512695312,0.08440017700195312,83.4348201751709,83.51922035217285,205.31344413757324,206.1290740966797
1759160274.8428748,1759160274.8520772,150.7716178894043,0.02002716064453125,0.08368492126464844,129.61721420288086,129.7008991241455,129.85634803771973,130.4934024810791
1759160274.9940073,1759160275.0009317,168.65849494934082,0.019311904907226562,0.08654594421386719,128.0381679534912,128.12471389770508,128.2215118408203,128.81851196289062
1759160275.1676416,1759160275.1781268,274.00779724121094,0.029325485229492188,0.1087188720703125,122.45607376098633,122.56479263305664,122.90453910827637,255.51104545593262
1759160275.4436238,1759160275.4581358,142.49587059020996,0.021457672119140625,0.09775161743164062,117.08259582519531,117.18034744262695,117.27309226989746,117.93160438537598
1759160275.5863662,1759160275.5881953,138.18359375,0.021457672119140625,0.10418891906738281,112.30301856994629,112.40720748901367,112.49399185180664,113.10887336730957
1759160275.728558,1759160275.7301698,143.4326171875,0.0209808349609375,0.08630752563476562,139.59693908691406,139.68324661254883,139.76073265075684,140.33937454223633
1759160275.8727696,1759160275.8930764,136.87872886657715,0.018835067749023438,0.08416175842285156,107.60807991027832,107.69224166870117,107.76162147521973,108.34074020385742
1759160276.009841,1759160276.015159,135.82372665405273,0.018358230590820312,0.08344650268554688,111.09495162963867,111.17839813232422,111.2523078918457,111.83714866638184
1759160276.145856,1759160276.148341,126.52754783630371,0.019788742065429688,0.08916854858398438,120.0723648071289,120.16153335571289,120.24497985839844,120.84078788757324
1759160276.2755806,1759160276.287136,142.69280433654785,0.020503997802734375,0.102996826171875,127.58326530456543,127.6862621307373,127.7763843536377,128.40938568115234
1759160276.4187102,1759160276.4252567,165.8616065979004,0.021219253540039062,0.1049041748046875,153.55801582336426,153.66291999816895,153.74350547790527,154.43849563598633
1759160276.5847666,1759160276.5981145,150.16698837280273,0.020265579223632812,0.09298324584960938,132.7686309814453,132.86161422729492,132.9488754272461,133.57949256896973
1759160276.735086,1759160276.7506952,265.08188247680664,0.11539459228515625,0.09107589721679688,131.91485404968262,132.0059299468994,238.44456672668457,239.52221870422363
1759160277.0035882,1759160277.124623,361.3274097442627,0.1380443572998047,0.09083747863769531,127.6693344116211,127.76017189025879,231.00805282592773,237.88142204284668
1759160277.3695683,1759160277.4775972,210.00909805297852,0.1347064971923828,0.07987022399902344,93.12891960144043,93.20878982543945,93.46818923950195,197.8163719177246
1759160277.5797796,1759160277.5852528,136.77263259887695,0.019073486328125,0.09131431579589844,108.65473747253418,108.74605178833008,108.84332656860352,109.45248603820801
1759160277.7167542,1759160277.7290359,147.810697555542,0.022649765014648438,0.08416175842285156,110.2595329284668,110.34369468688965,110.45122146606445,117.30742454528809
1759160277.8647602,1759160277.8682144,139.61124420166016,0.02002716064453125,0.0934600830078125,123.6412525177002,123.73471260070801,123.82650375366211,124.46022033691406
1759160278.0045698,1759160278.0062828,122.47300148010254,0.020742416381835938,0.08893013000488281,116.95551872253418,117.04444885253906,117.12193489074707,117.72465705871582
1759160278.1299999,1759160278.1356645,137.57777214050293,0.020742416381835938,0.10752677917480469,107.4683666229248,107.57589340209961,107.67602920532227,121.99854850769043
1759160278.267798,1759160278.269503,126.24716758728027,0.022649765014648438,0.08845329284667969,112.24699020385742,112.3354434967041,112.43486404418945,113.06047439575195
1759160278.4005868,1759160278.4029784,155.9579372406006,0.019073486328125,0.09822845458984375,110.46862602233887,110.56685447692871,110.65268516540527,111.24229431152344
1759160278.556811,1759160278.647582,213.11616897583008,0.11849403381347656,0.07462501525878906,111.42635345458984,111.50097846984863,111.7393970489502,201.4632225036621
1759160278.775645,1759160278.7876654,224.1649627685547,0.026702880859375,0.08249282836914062,82.48209953308105,82.5645923614502,82.86833763122559,207.74579048156738
1759160279.0079072,1759160279.0321136,121.17362022399902,0.021696090698242188,0.09584426879882812,85.85762977600098,85.9534740447998,86.04216575622559,86.6401195526123
1759160279.1306489,1759160279.1362684,113.0685806274414,0.021457672119140625,0.10442733764648438,92.8182601928711,92.92268753051758,93.0166244506836,95.84188461303711
1759160279.2440212,1759160279.3215327,311.6605281829834,118.46709251403809,0.09393692016601562,96.02499008178711,96.11892700195312,214.8299217224121,232.13839530944824
1759160279.5558608,1759160279.5666654,113.7692928314209,0.02193450927734375,0.10657310485839844,90.7444953918457,90.8510684967041,91.04657173156738,91.96877479553223
1759160279.6699438,1759160279.6795905,197.97348976135254,0.12087821960449219,0.10514259338378906,89.20836448669434,89.31350708007812,172.20330238342285,173.04539680480957
1759160279.8720427,1759160279.8801196,199.88059997558594,0.03361701965332031,0.10204315185546875,84.82956886291504,84.93161201477051,85.25419235229492,186.57493591308594
1759160280.0756662,1759160280.0831418,107.50365257263184,0.019073486328125,0.08344650268554688,95.01767158508301,95.10111808776855,95.27587890625,96.18091583251953
1759160280.1852195,1759160280.1936283,134.2909336090088,0.02288818359375,0.09822845458984375,117.22445487976074,117.32268333435059,117.41375923156738,118.05343627929688
1759160280.321809,1759160280.4218178,210.68882942199707,0.14090538024902344,0.08940696716308594,98.86026382446289,98.94967079162598,99.24983978271484,197.23868370056152
1759160280.5337336,1759160280.5554216,246.97232246398926,121.97136878967285,0.10824203491210938,88.43231201171875,88.54055404663086,210.71934700012207,219.68936920166016
1759160280.7865746,1759160280.7887223,204.7445774078369,0.035762786865234375,0.10633468627929688,98.5097885131836,98.61612319946289,98.75965118408203,196.17104530334473
1759160280.9946065,1759160280.9963493,131.68859481811523,0.021696090698242188,0.11563301086425781,122.6496696472168,122.76530265808105,122.85184860229492,123.46339225769043
1759160281.1265576,1759160281.1313927,157.37438201904297,0.018835067749023438,0.09083747863769531,151.19552612304688,151.28636360168457,151.37410163879395,151.96466445922852
1759160281.2840695,1759160281.2892199,128.58152389526367,0.019550323486328125,0.1723766326904297,115.30685424804688,115.4792308807373,115.56863784790039,116.17612838745117
1759160281.4165692,1759160281.418289,133.45050811767578,0.018596649169921875,0.09608268737792969,122.78342247009277,122.8795051574707,123.06928634643555,123.93665313720703
1759160281.5525756,1759160281.566216,163.37251663208008,0.021457672119140625,0.09822845458984375,127.75015830993652,127.84838676452637,127.94828414916992,128.570556640625
1759160281.7280936,1759160281.8521001,264.9252414703369,0.04124641418457031,0.08893013000488281,137.79520988464355,137.88414001464844,138.01097869873047,140.3641700744629
1759160282.0001643,1759160282.0102134,168.81775856018066,0.018358230590820312,0.08988380432128906,135.93149185180664,136.02137565612793,136.12008094787598,156.76617622375488
1759160282.1691246,1759160282.1708782,123.03829193115234,0.019311904907226562,0.08940696716308594,120.06616592407227,120.15557289123535,120.22781372070312,120.80931663513184
1759160282.2923295,1759160282.2990887,104.32028770446777,0.019550323486328125,0.08511543273925781,91.65000915527344,91.7351245880127,91.83001518249512,92.47040748596191
1759160282.396839,1759160282.401222,128.30591201782227,0.021219253540039062,0.09965896606445312,109.04097557067871,109.14063453674316,109.2233657836914,109.86065864562988
1759160282.5286164,1759160282.5302548,122.04337120056152,0.018358230590820312,0.08559226989746094,114.26401138305664,114.3496036529541,114.4413948059082,115.02957344055176
1759160282.652644,1759160282.6574485,135.9412670135498,0.0286102294921875,0.11444091796875,122.3149299621582,122.42937088012695,122.53332138061523,123.15750122070312
1759160282.7887504,1759160282.7944906,135.0996494293213,0.023126602172851562,0.11467933654785156,110.26215553283691,110.37683486938477,110.47863960266113,111.13595962524414
1759160282.925635,1759160282.9302716,104.01177406311035,0.02288818359375,0.10776519775390625,96.83465957641602,96.94242477416992,97.04399108886719,97.70941734313965
1759160283.0336695,1759160283.0355186,104.16436195373535,0.02288818359375,0.10943412780761719,97.51605987548828,97.6254940032959,97.72491455078125,98.38581085205078
1759160283.138075,1759160283.1412342,110.22830009460449,0.0209808349609375,0.10657310485839844,93.64891052246094,93.75548362731934,93.85037422180176,94.48122978210449
1759160283.2489388,1759160283.2641692,105.66139221191406,0.020503997802734375,0.11038780212402344,81.77399635314941,81.88438415527344,81.96473121643066,82.59224891662598
1759160283.3548408,1759160283.3613408,100.31795501708984,0.030517578125,0.12373924255371094,90.21139144897461,90.33513069152832,90.43693542480469,91.13621711730957
1759160283.455357,1759160283.4572947,117.25163459777832,0.019788742065429688,0.10609626770019531,97.75257110595703,97.85866737365723,97.94735908508301,114.63165283203125
1759160283.5728211,1759160283.576653,127.74538993835449,0.021219253540039062,0.10895729064941406,117.42830276489258,117.53726005554199,117.63787269592285,118.28041076660156
1759160283.7007298,1759160283.705884,114.63618278503418,0.0209808349609375,0.10228157043457031,99.71189498901367,99.81417655944824,99.90215301513672,100.57520866394043
1759160283.815582,1759160283.8192074,95.54171562194824,0.019550323486328125,0.09560585021972656,86.7011547088623,86.79676055908203,86.86256408691406,87.44454383850098
1759160283.911311,1759160283.9130218,100.52847862243652,0.0209808349609375,0.09274482727050781,84.69605445861816,84.78879928588867,84.8531723022461,85.43038368225098
1759160284.0120127,1759160284.1074321,322.91722297668457,148.1928825378418,0.08940696716308594,61.30361557006836,61.393022537231445,215.33489227294922,303.8783073425293
1759160284.3381648,1759160284.345969,134.75489616394043,0.020503997802734375,0.09131431579589844,112.06436157226562,112.15567588806152,112.32709884643555,113.18182945251465
1759160284.473103,1759160284.5980763,248.63815307617188,0.04553794860839844,0.08916854858398438,114.79997634887695,114.88914489746094,115.01407623291016,132.46607780456543
1759160284.7219417,1759160284.733351,133.66985321044922,0.020742416381835938,0.087738037109375,119.19426918029785,119.28200721740723,119.35758590698242,119.9488639831543
1759160284.8562646,1759160284.8685663,148.0276584625244,0.021696090698242188,0.09894371032714844,134.42707061767578,134.52601432800293,134.6127986907959,136.39569282531738
1759160285.0055783,1759160285.026196,169.0542697906494,0.021457672119140625,0.091552734375,140.83170890808105,140.92326164245605,141.00289344787598,141.68858528137207
1759160285.1776245,1759160285.1863165,124.31550025939941,0.020265579223632812,0.09775161743164062,99.72167015075684,99.81942176818848,100.01182556152344,112.28752136230469
1759160285.30656,1759160285.31135,139.387845993042,0.022172927856445312,0.10609626770019531,124.31836128234863,124.42445755004883,124.51386451721191,125.12350082397461
1759160285.446156,1759160285.4512806,163.47813606262207,0.021696090698242188,0.09918212890625,128.6013126373291,128.70049476623535,128.78680229187012,129.40621376037598
1759160285.6105874,1759160285.6141977,142.75431632995605,0.019788742065429688,0.09465217590332031,135.21814346313477,135.3127956390381,135.38837432861328,135.99395751953125
1759160285.7543855,1759160285.7561085,155.68208694458008,0.019311904907226562,0.08153915405273438,149.90472793579102,149.98626708984375,150.12860298156738,150.7883071899414
1759160285.910231,1759160285.915148,148.74958992004395,0.019550323486328125,0.08225440979003906,130.61118125915527,130.6934356689453,130.8302879333496,131.61206245422363
1759160286.059104,1759160286.0735242,163.8634204864502,0.02002716064453125,0.08082389831542969,135.01977920532227,135.1006031036377,135.1759433746338,135.79750061035156
1759160286.2276096,1759160286.2343674,174.072265625,0.019073486328125,13.118505477905273,146.8517780303955,159.97028350830078,160.07566452026367,160.7677936553955
1759160286.4019237,1759160286.4122896,144.64282989501953,0.020742416381835938,0.10251998901367188,126.0075569152832,126.11007690429688,126.19495391845703,126.79886817932129
1759160286.5490737,1759160286.657136,223.12140464782715,0.1285076141357422,0.08058547973632812,97.6414680480957,97.72205352783203,97.97906875610352,205.16300201416016
1759160286.7723496,1759160286.782162,133.28170776367188,0.021457672119140625,0.09608268737792969,101.82857513427734,101.92465782165527,102.02240943908691,102.65731811523438
1759160286.9058466,1759160286.9089413,115.87190628051758,0.020503997802734375,0.09822845458984375,104.67720031738281,104.77542877197266,104.8591136932373,105.47113418579102
1759160287.021906,1759160287.029172,106.10222816467285,0.0286102294921875,0.07963180541992188,97.50819206237793,97.58782386779785,97.67031669616699,98.24347496032715
1759160287.1283314,1759160287.1331909,123.40688705444336,0.020742416381835938,0.09465217590332031,111.57488822937012,111.66954040527344,111.75823211669922,112.35785484313965
1759160287.2518845,1759160287.255385,147.76134490966797,0.019788742065429688,0.10967254638671875,136.32631301879883,136.43598556518555,136.52896881103516,137.1467113494873
1759160287.399877,1759160287.4033895,172.71828651428223,0.0209808349609375,21.25692367553711,143.13459396362305,164.39151763916016,164.4885540008545,165.48418998718262
1759160287.5728471,1759160287.5746932,163.73825073242188,0.018835067749023438,0.09942054748535156,138.17882537841797,138.27824592590332,138.35906982421875,138.98301124572754
1759160287.7367392,1759160287.7423587,154.90460395812988,0.02193450927734375,0.1251697540283203,143.31626892089844,143.44143867492676,143.599271774292,144.4692611694336
1759160287.8918757,1759160287.8972335,162.75286674499512,0.022411346435546875,0.10037422180175781,136.11364364624023,136.214017868042,136.30986213684082,136.93809509277344
1759160288.0548425,1759160288.0582113,142.791748046875,0.020742416381835938,0.09942054748535156,133.5587501525879,133.65817070007324,133.73255729675293,134.3247890472412
1759160288.197766,1759160288.1997676,153.40328216552734,0.01811981201171875,0.08058547973632812,146.24929428100586,146.3298797607422,146.4252471923828,148.5886573791504
1759160288.3513482,1759160288.3671396,121.27542495727539,0.08273124694824219,0.08940696716308594,98.0689525604248,98.15835952758789,98.43921661376953,113.31558227539062
1759160288.472825,1759160288.4770997,134.9496841430664,0.021219253540039062,0.09417533874511719,111.41610145568848,111.5102767944336,111.6037368774414,112.22696304321289
1759160288.6107337,1759160288.6161923,128.38149070739746,0.020742416381835938,0.09512901306152344,119.80390548706055,119.89903450012207,120.05066871643066,120.70965766906738
1759160288.7408795,1759160288.7521,147.80592918395996,0.020742416381835938,0.08940696716308594,128.4339427947998,128.5233497619629,128.6013126373291,129.21690940856934
1759160288.8888547,1759160289.0139487,237.15829849243164,0.13399124145507812,0.07915496826171875,97.17774391174316,97.25689888000488,97.50771522521973,232.21063613891602
1759160289.1305776,1759160289.2659397,263.07129859924316,0.03910064697265625,0.08678436279296875,121.12903594970703,121.2158203125,121.3383674621582,123.74281883239746
1759160289.3938904,1759160289.3984056,176.7416000366211,0.021219253540039062,12.092828750610352,130.90062141418457,142.99345016479492,143.08595657348633,143.7075138092041
1759160289.5709877,1759160289.587497,311.95569038391113,0.1239776611328125,0.10514259338378906,94.69938278198242,94.80452537536621,191.20287895202637,283.6318016052246
1759160289.8905532,1759160289.8994756,310.0273609161377,88.74082565307617,0.08535385131835938,99.41768646240234,99.5030403137207,288.4342670440674,292.79518127441406
1759160290.2115903,1759160290.2196043,319.347620010376,190.63925743103027,0.091552734375,112.52784729003906,112.61940002441406,303.51853370666504,306.2756061553955
1759160290.535228,1759160290.558145,168.79510879516602,0.021219253540039062,0.0972747802734375,135.73884963989258,135.83612442016602,135.9255313873291,136.53111457824707
1759160290.7045639,1759160290.8375268,264.20044898986816,0.13136863708496094,0.07915496826171875,119.25554275512695,119.33469772338867,119.59147453308105,249.8931884765625
1759160290.9710197,1759160290.9861364,141.82329177856445,0.017642974853515625,0.07987022399902344,122.37310409545898,122.45297431945801,122.5271224975586,123.08406829833984
1759160291.1146128,1759160291.1221468,130.20873069763184,0.017881393432617188,0.07915496826171875,112.71548271179199,112.79463768005371,112.86354064941406,113.42859268188477
1759160291.2487628,1759160291.363794,224.23291206359863,0.1499652862548828,0.08893013000488281,91.9806957244873,92.06962585449219,92.61679649353027,101.0582447052002
1759160291.4735663,1759160291.5650067,316.0841464996338,0.14543533325195312,0.09942054748535156,111.7241382598877,111.82355880737305,209.63120460510254,217.15426445007324
1759160291.7898896,1759160291.8041778,138.39030265808105,0.02002716064453125,0.1068115234375,111.94705963134766,112.05387115478516,112.14351654052734,112.78009414672852
1759160291.9345958,1759160291.936241,126.83415412902832,0.018358230590820312,0.08273124694824219,122.76792526245117,122.85065650939941,122.94244766235352,123.52752685546875
1759160292.06166,1759160292.0668592,150.63810348510742,0.022649765014648438,0.09965896606445312,137.6030445098877,137.70270347595215,137.77804374694824,138.4594440460205
1759160292.2124262,1759160292.215212,150.46191215515137,0.020265579223632812,0.08082389831542969,146.34323120117188,146.4240550994873,146.51989936828613,147.65644073486328
1759160292.3630922,1759160292.3648036,143.5394287109375,0.01811981201171875,0.08225440979003906,123.36301803588867,123.44527244567871,123.52180480957031,140.90204238891602
1759160292.5075946,1759160292.5126474,104.05302047729492,0.020742416381835938,0.09012222290039062,94.88201141357422,94.97213363647461,95.08991241455078,95.69954872131348
1759160292.6118968,1759160292.6181347,112.22314834594727,0.020503997802734375,0.10824203491210938,96.09341621398926,96.20165824890137,96.29511833190918,96.91166877746582
1759160292.7244055,1759160292.73623,146.23594284057617,0.0209808349609375,0.10967254638671875,122.8785514831543,122.98822402954102,123.18277359008789,124.14741516113281
1759160292.870833,1759160292.9947195,267.76695251464844,0.13494491577148438,0.08177757263183594,123.0313777923584,123.11315536499023,123.37422370910645,251.35517120361328
1759160293.1387799,1759160293.1455252,165.15612602233887,0.02193450927734375,0.08368492126464844,144.32501792907715,144.4087028503418,144.49572563171387,145.08914947509766
1759160293.3041258,1759160293.3063025,129.84466552734375,0.02193450927734375,0.09012222290039062,109.67016220092773,109.76028442382812,109.84349250793457,110.4278564453125
1759160293.4344556,1759160293.4392009,132.18450546264648,0.0209808349609375,0.08678436279296875,115.01359939575195,115.10038375854492,115.1881217956543,115.79608917236328
1759160293.5673785,1759160293.5689468,122.25174903869629,0.019550323486328125,0.08273124694824219,110.09573936462402,110.17847061157227,110.25643348693848,110.82196235656738
1759160293.6898234,1759160293.6932836,96.13227844238281,0.020265579223632812,0.08487701416015625,89.19048309326172,89.27536010742188,89.3561840057373,90.04878997802734
1759160293.7861369,1759160293.7902095,136.78836822509766,0.019788742065429688,0.09059906005859375,111.42969131469727,111.52029037475586,111.59634590148926,112.19573020935059
1759160293.9232223,1759160293.928548,193.41421127319336,67.78645515441895,0.09274482727050781,114.27116394042969,114.3639087677002,182.39188194274902,183.4542751312256
1759160294.1168864,1759160294.1287587,209.212064743042,0.133514404296875,0.10132789611816406,98.39391708374023,98.4952449798584,98.8311767578125,100.47435760498047
1759160294.3263035,1759160294.3301442,124.44615364074707,0.022172927856445312,0.09822845458984375,107.0394515991211,107.13768005371094,107.21778869628906,108.00313949584961
1759160294.4509394,1759160294.45269,140.3207778930664,0.019550323486328125,0.08416175842285156,117.21992492675781,117.30408668518066,117.38753318786621,118.00456047058105
1759160294.5925794,1759160294.5971584,124.3140697479248,0.020265579223632812,0.08487701416015625,102.10156440734863,102.18644142150879,102.26106643676758,102.83684730529785
1759160294.7215457,1759160294.8516006,268.45550537109375,0.044345855712890625,0.08225440979003906,133.24356079101562,133.32581520080566,133.4397792816162,138.83662223815918
1759160294.9945567,1759160295.1167147,255.23686408996582,0.13136863708496094,0.08082389831542969,119.42100524902344,119.50182914733887,119.77100372314453,240.8301830291748
1759160295.2546911,1759160295.2631779,92.29850769042969,0.022172927856445312,0.10514259338378906,78.94396781921387,79.04911041259766,79.14519309997559,79.78463172912598
1759160295.3472004,1759160295.3523061,100.57258605957031,0.02002716064453125,0.11038780212402344,90.67416191101074,90.78454971313477,90.87204933166504,91.5224552154541
1759160295.4479852,1759160295.453256,100.76665878295898,0.021219253540039062,0.11110305786132812,86.95721626281738,87.06831932067871,87.16130256652832,87.80121803283691
1759160295.5506477,1759160295.5544171,118.99471282958984,0.023603439331054688,0.12564659118652344,108.44898223876953,108.57462882995605,108.66808891296387,109.31134223937988
1759160295.6698375,1759160295.6733866,134.96780395507812,0.02002716064453125,0.12111663818359375,114.75443840026855,114.87555503845215,114.97187614440918,130.7222843170166
1759160295.8050334,1759160295.8092523,102.67281532287598,0.0209808349609375,0.11682510375976562,87.48698234558105,87.60380744934082,87.69559860229492,88.31357955932617
1759160295.909692,1759160295.9152699,103.87372970581055,0.021219253540039062,0.10395050048828125,79.50663566589355,79.61058616638184,79.69045639038086,80.31249046325684
1759160296.013807,1759160296.0209188,121.83570861816406,0.021696090698242188,0.102996826171875,109.0085506439209,109.11154747009277,109.20262336730957,109.83133316040039
1759160296.1366014,1759160296.1463275,67.01326370239258,0.02002716064453125,0.10967254638671875,47.5921630859375,47.70183563232422,47.83987998962402,54.7635555267334
1759160296.2037895,1759160296.2100828,98.07705879211426,0.019073486328125,0.08177757263183594,85.45565605163574,85.53743362426758,85.60562133789062,86.16232872009277
1759160296.3055882,1759160296.3732252,173.42901229858398,0.11920928955078125,0.07128715515136719,87.4338150024414,87.50510215759277,87.74352073669434,165.10415077209473
1759160296.4791982,1759160296.4823122,150.5279541015625,0.019788742065429688,0.095367431640625,144.44494247436523,144.54030990600586,144.63090896606445,145.26653289794922
1759160296.6298609,1759160296.6375568,136.15894317626953,0.022649765014648438,0.09632110595703125,124.96566772460938,125.0619888305664,125.24914741516113,132.01022148132324
1759160296.7676134,1759160296.773244,173.45404624938965,0.0209808349609375,0.10395050048828125,135.85662841796875,135.96057891845703,136.0485553741455,163.74564170837402
1759160296.941279,1759160296.9431174,144.06490325927734,0.0209808349609375,0.10776519775390625,126.80339813232422,126.91116333007812,126.99604034423828,127.62641906738281
1759160297.0857384,1759160297.0905015,136.92331314086914,0.021696090698242188,0.10538101196289062,106.35185241699219,106.45723342895508,106.54616355895996,107.17225074768066
1759160297.2229097,1759160297.2266033,136.7514133453369,0.022172927856445312,0.11134147644042969,129.11319732666016,129.2245388031006,129.3163299560547,129.9760341644287
1759160297.3598585,1759160297.361721,133.79168510437012,0.026226043701171875,0.10371208190917969,112.23173141479492,112.3354434967041,112.41841316223145,113.09313774108887
1759160297.4938607,1759160297.4992049,118.8504695892334,0.02002716064453125,0.091552734375,106.15420341491699,106.24575614929199,106.32777214050293,106.92119598388672
1759160297.612897,1759160297.623043,131.32262229919434,0.018358230590820312,0.07796287536621094,119.91643905639648,119.9944019317627,120.07021903991699,120.64075469970703
1759160297.7443976,1759160297.7492087,122.2379207611084,0.020742416381835938,0.10251998901367188,105.88979721069336,105.99231719970703,106.0647964477539,106.66823387145996
1759160297.8668165,1759160297.8712158,120.74470520019531,0.019788742065429688,0.08153915405273438,105.6058406829834,105.68737983703613,105.78346252441406,106.39476776123047
1759160297.987819,1759160298.0965605,268.8612937927246,0.039577484130859375,0.09799003601074219,147.01342582702637,147.1114158630371,147.2616195678711,153.21969985961914
1759160298.265691,1759160298.2798781,161.25798225402832,0.018835067749023438,0.09584426879882812,125.96273422241211,126.05857849121094,126.14274024963379,126.79266929626465
1759160298.4271505,1759160298.4290166,153.37204933166504,0.021457672119140625,0.09059906005859375,139.07170295715332,139.1623020172119,139.26434516906738,139.939546585083
1759160298.5806603,1759160298.606062,158.9796543121338,0.019311904907226562,0.08225440979003906,114.8366928100586,114.91894721984863,115.00740051269531,115.61870574951172
1759160298.743627,1759160298.7453625,124.35126304626465,0.02193450927734375,0.11420249938964844,115.90266227722168,116.01686477661133,116.10770225524902,116.71161651611328
1759160298.8683066,1759160298.8731744,119.74263191223145,0.02002716064453125,0.080108642578125,97.55587577819824,97.63598442077637,97.70774841308594,98.28352928161621
1759160298.9882257,1759160298.9924934,122.25747108459473,0.0209808349609375,0.08130073547363281,116.72353744506836,116.80483818054199,116.88995361328125,117.49625205993652
1759160299.1106482,1759160299.1300542,114.44902420043945,0.018596649169921875,0.080108642578125,90.29078483581543,90.37089347839355,90.45076370239258,91.02797508239746
1759160299.2265453,1759160299.2312407,103.12008857727051,0.020742416381835938,0.09298324584960938,88.95707130432129,89.0500545501709,89.12110328674316,89.74528312683105
1759160299.3335826,1759160299.425568,210.5097770690918,0.13446807861328125,0.08511543273925781,106.22859001159668,106.31370544433594,106.6737174987793,201.5693187713623
1759160299.556589,1759160299.5775194,223.00457954406738,0.11563301086425781,0.0972747802734375,74.0213394165039,74.11861419677734,196.5346336364746,197.3574161529541
1759160299.7798111,1759160299.7853346,124.01509284973145,0.02193450927734375,0.11873245239257812,117.18249320983887,117.30122566223145,117.38967895507812,120.24807929992676
1759160299.9041398,1759160299.9096317,104.68888282775879,0.019788742065429688,0.08344650268554688,93.72162818908691,93.80507469177246,93.89996528625488,94.52652931213379
1759160300.010866,1759160300.1000705,188.05456161499023,0.040531158447265625,0.08082389831542969,86.40813827514648,86.48896217346191,86.64774894714355,95.89576721191406
1759160300.1991143,1759160300.2044263,118.63160133361816,0.0171661376953125,0.10609626770019531,97.50938415527344,97.61548042297363,97.69940376281738,98.2964038848877
1759160300.3206067,1759160300.3224533,129.11176681518555,0.03266334533691406,0.09799003601074219,109.21502113342285,109.3130111694336,109.39455032348633,109.94553565979004
1759160300.4499025,1759160300.4549708,94.81096267700195,0.018358230590820312,0.08463859558105469,84.85937118530273,84.94400978088379,85.0210189819336,85.60538291931152
1759160300.5449045,1759160300.5501678,101.40633583068848,0.020265579223632812,0.08988380432128906,94.41995620727539,94.50984001159668,94.66123580932617,95.47853469848633
1759160300.6464367,1759160300.6531234,166.1388874053955,0.020503997802734375,0.09846687316894531,154.68358993530273,154.78205680847168,154.8755168914795,155.5004119873047
1759160300.8128142,1759160300.8222377,140.31362533569336,0.021696090698242188,0.11181831359863281,123.4126091003418,123.52442741394043,123.61025810241699,124.2520809173584
1759160300.9565177,1759160300.958188,125.56743621826172,0.018358230590820312,0.08296966552734375,122.58148193359375,122.6644515991211,122.7407455444336,123.31891059875488
1759160301.0824428,1759160301.087256,128.19671630859375,0.020503997802734375,0.09703636169433594,113.37471008300781,113.47174644470215,113.54875564575195,114.19463157653809
1759160301.2108114,1759160301.2126744,99.01213645935059,0.024318695068359375,0.1354217529296875,86.01236343383789,86.14778518676758,86.2417221069336,86.92502975463867
1759160301.3100533,1759160301.3152685,117.58995056152344,0.02193450927734375,0.10395050048828125,90.48128128051758,90.58523178100586,90.67201614379883,91.29691123962402
1759160301.4278545,1759160301.4381714,125.8845329284668,0.020265579223632812,0.10395050048828125,110.17608642578125,110.28003692626953,110.37325859069824,110.9919548034668
1759160301.553927,1759160301.5592055,131.6378116607666,0.021696090698242188,0.09059906005859375,120.38469314575195,120.47529220581055,120.56374549865723,121.18244171142578
1759160301.6857598,1759160301.6897109,120.86653709411621,0.02002716064453125,0.087738037109375,96.52996063232422,96.6176986694336,96.68278694152832,114.30764198303223
1759160301.806799,1759160301.81014,131.11448287963867,0.019788742065429688,0.080108642578125,109.78269577026367,109.8628044128418,109.94625091552734,110.52823066711426
1759160301.938191,1759160301.940033,101.62472724914551,0.019788742065429688,0.08463859558105469,92.13852882385254,92.2231674194336,92.30494499206543,92.87238121032715
1759160302.0399966,1759160302.0463529,97.23567962646484,0.02002716064453125,0.10251998901367188,86.98129653930664,87.08381652832031,87.17584609985352,87.77475357055664
1759160302.1374888,1759160302.1421378,103.15966606140137,0.020265579223632812,0.10561943054199219,86.53688430786133,86.64250373840332,86.72237396240234,87.31889724731445
1759160302.2408445,1759160302.4581645,335.79039573669434,0.05054473876953125,0.09036064147949219,113.74139785766602,113.83175849914551,114.01247978210449,127.88963317871094
1759160302.5768886,1759160302.5828793,137.1018886566162,0.021696090698242188,0.1010894775390625,126.77216529846191,126.87325477600098,126.95527076721191,127.61330604553223
1759160302.7142675,1759160302.7373064,229.6741008758545,0.0438690185546875,0.09059906005859375,105.94892501831055,106.03952407836914,106.22882843017578,122.00140953063965
1759160302.9441326,1759160302.9512866,135.8499526977539,0.019788742065429688,0.09489059448242188,109.19475555419922,109.28964614868164,109.3602180480957,109.94505882263184
1759160303.0835755,1759160303.0854099,116.96958541870117,0.019311904907226562,0.1163482666015625,111.37652397155762,111.49287223815918,111.66930198669434,112.54286766052246
1759160303.2006948,1759160303.205249,150.82454681396484,0.020265579223632812,0.09298324584960938,132.06005096435547,132.15303421020508,132.2495937347412,132.86423683166504
1759160303.3536806,1759160303.3554285,150.10905265808105,0.017642974853515625,0.09393692016601562,126.7702579498291,126.86419486999512,126.97386741638184,127.65192985534668
1759160303.5066211,1759160303.5123029,159.5451831817627,0.020265579223632812,0.10442733764648438,150.4223346710205,150.526762008667,150.6063938140869,151.22747421264648
1759160303.6696293,1759160303.6811922,161.38553619384766,0.020265579223632812,0.08916854858398438,143.87893676757812,143.9681053161621,144.04559135437012,144.63067054748535
1759160303.8312201,1759160303.8574507,158.83922576904297,0.030279159545898438,0.09393692016601562,129.34613227844238,129.4400691986084,129.55594062805176,130.77878952026367
