Timestamp,ArrivalTime,TotalTime(ms),WaitTime(ms),DecodeTime(ms),InferTime(ms),ServerComputeTime(ms),TotalServer(ms),Total
1758587506.7823622,1758587506.7970693,41.94164276123047,0.024080276489257812,0.10037422180175781,21.760225296020508,21.860599517822266,21.92068099975586,22.594928741455078
1758587506.8244753,1758587506.8261023,31.237125396728516,0.019788742065429688,0.07796287536621094,20.299673080444336,20.377635955810547,20.430803298950195,20.975589752197266
1758587506.8558617,1758587506.8572142,43.8535213470459,0.016450881958007812,0.09226799011230469,17.481327056884766,17.57359504699707,17.696857452392578,18.36681365966797
1758587506.8998687,1758587506.9021835,74.0957260131836,0.016450881958007812,0.07867813110351562,62.73770332336426,62.81638145446777,62.9115104675293,65.63615798950195
1758587506.9741116,1758587507.049734,181.47659301757812,0.15878677368164062,0.05650520324707031,65.1700496673584,65.22655487060547,65.78779220581055,145.7955837249756
1758587507.1593783,1758587507.2648373,206.2368392944336,0.15878677368164062,0.05602836608886719,65.59038162231445,65.64640998840332,66.23482704162598,151.23438835144043
1758587507.3733437,1758587507.5439687,246.73891067504883,0.25534629821777344,0.06985664367675781,65.59276580810547,65.66262245178223,66.31898880004883,194.627046585083
1758587507.6234012,1758587507.697505,226.9902229309082,0.3666877746582031,0.06937980651855469,63.103437423706055,63.17281723022461,64.04614448547363,147.7682590484619
1758587507.8543549,1758587507.9113555,212.08786964416504,0.033855438232421875,0.06771087646484375,64.18895721435547,64.25666809082031,64.58497047424316,151.19290351867676
1758587508.0665877,1758587508.126776,214.80369567871094,0.03647804260253906,0.06747245788574219,64.18299674987793,64.25046920776367,64.58926200866699,151.29899978637695
1758587508.2853599,1758587508.344298,270.50280570983887,0.1277923583984375,0.06985664367675781,62.67571449279785,62.74557113647461,63.15469741821289,150.95281600952148
1758587508.5559752,1758587508.5580413,70.70612907409668,0.015974044799804688,0.06699562072753906,63.26413154602051,63.33112716674805,63.43197822570801,64.42475318908691
1758587508.6268213,1758587508.773155,212.20922470092773,0.03528594970703125,0.09059906005859375,64.11123275756836,64.20183181762695,64.35060501098633,66.50495529174805
1758587508.8413484,1758587508.9884844,216.2759304046631,0.03314018249511719,0.06914138793945312,63.92359733581543,63.99273872375488,64.14222717285156,66.26725196838379
1758587509.057768,1758587509.2031453,215.8970832824707,0.03528594970703125,0.06794929504394531,64.44668769836426,64.5146369934082,64.66865539550781,66.52331352233887
1758587509.273807,1758587509.419449,211.4872932434082,0.0362396240234375,0.06866455078125,64.02897834777832,64.09764289855957,64.26119804382324,66.47109985351562
1758587509.4854062,1758587509.6330783,230.32641410827637,0.6802082061767578,0.07128715515136719,64.78023529052734,64.85152244567871,67.25072860717773,214.1416072845459
1758587509.7194152,1758587509.726528,93.0337905883789,0.024318695068359375,0.06818771362304688,60.28914451599121,60.35733222961426,60.66012382507324,83.62007141113281
1758587509.8163688,1758587509.9384434,213.06657791137695,0.037670135498046875,0.06890296936035156,63.91119956970215,63.9801025390625,64.29576873779297,88.18864822387695
1758587510.033357,1758587510.154233,213.04559707641602,0.06175041198730469,0.07081031799316406,63.58194351196289,63.652753829956055,63.99130821228027,87.6157283782959
1758587510.2465239,1758587510.3693078,213.9151096343994,0.038623809814453125,0.06914138793945312,64.25809860229492,64.32723999023438,64.6665096282959,88.13285827636719
1758587510.4605887,1758587510.5839944,218.50323677062988,0.03719329833984375,0.06771087646484375,64.0718936920166,64.13960456848145,64.4681453704834,87.61334419250488
1758587510.6863413,1758587510.8608572,243.3185577392578,0.14853477478027344,0.05793571472167969,65.21320343017578,65.27113914489746,65.66691398620605,129.7907829284668
1758587510.9423594,1758587511.0762384,208.68968963623047,0.16117095947265625,0.057697296142578125,65.8562183380127,65.91391563415527,66.33377075195312,130.2049160003662
1758587511.1511402,1758587511.292238,212.42141723632812,0.1614093780517578,0.05650520324707031,65.72771072387695,65.78421592712402,66.20979309082031,130.16891479492188
1758587511.363679,1758587511.44725,235.70990562438965,0.1468658447265625,0.07033348083496094,62.415122985839844,62.485456466674805,62.943220138549805,87.7387523651123
1758587511.5994911,1758587511.6612902,212.30411529541016,0.034332275390625,0.06866455078125,63.27390670776367,63.34257125854492,63.669681549072266,150.11835098266602
1758587511.8121378,1758587511.8761528,218.36185455322266,0.03695487976074219,0.07605552673339844,63.56358528137207,63.63964080810547,63.95459175109863,151.05032920837402
1758587512.030643,1758587512.090609,211.94076538085938,0.03552436828613281,0.06628036499023438,64.21494483947754,64.28122520446777,64.59808349609375,151.09586715698242
1758587512.2456017,1758587512.3056512,212.8443717956543,0.03457069396972656,0.06723403930664062,64.10431861877441,64.17155265808105,64.4979476928711,150.787353515625
1758587512.462331,1758587512.5207222,209.5348834991455,0.034809112548828125,0.06604194641113281,64.30268287658691,64.36872482299805,64.69845771789551,150.77781677246094
1758587512.673389,1758587512.7362645,214.0660285949707,0.0362396240234375,0.06842613220214844,63.91477584838867,63.98320198059082,64.30697441101074,151.04341506958008
1758587512.892741,1758587512.9515996,210.14690399169922,0.036716461181640625,0.06842613220214844,64.02063369750977,64.08905982971191,64.40997123718262,151.4744758605957
1758587513.1030269,1758587513.1663785,150.39539337158203,0.2300739288330078,0.06651878356933594,64.10598754882812,64.17250633239746,65.85860252380371,128.2937526702881
1758587513.253566,1758587513.3813908,198.09365272521973,0.07462501525878906,0.06651878356933594,64.50510025024414,64.57161903381348,65.9632682800293,130.74731826782227
1758587513.4517999,1758587513.596802,214.86353874206543,0.034332275390625,0.06723403930664062,64.11981582641602,64.18704986572266,64.33963775634766,66.1935806274414
1758587513.666806,1758587513.8121521,211.32564544677734,0.034332275390625,0.07677078247070312,64.24331665039062,64.32008743286133,64.47124481201172,66.30277633666992
1758587513.8783011,1758587514.0265932,216.93921089172363,0.5590915679931641,0.06914138793945312,64.81194496154785,64.8810863494873,66.06459617614746,213.3622169494629
1758587514.100357,1758587514.2420523,218.78600120544434,0.21195411682128906,0.05698204040527344,65.73009490966797,65.78707695007324,66.23220443725586,194.14901733398438
1758587514.3293529,1758587514.4577014,204.3015956878662,0.24461746215820312,0.05841255187988281,65.18721580505371,65.2456283569336,65.89984893798828,189.35608863830566
1758587514.5378234,1758587514.6090872,169.8586940765381,0.15473365783691406,0.06628036499023438,65.29927253723145,65.36555290222168,65.91105461120605,147.73988723754883
1758587514.7133393,1758587514.8880444,244.31228637695312,0.2677440643310547,0.06175041198730469,65.0477409362793,65.1094913482666,65.75489044189453,192.82174110412598
1758587514.966371,1758587515.0396967,172.28436470031738,0.17762184143066406,0.05841255187988281,65.09041786193848,65.14883041381836,65.7346248626709,148.76437187194824
1758587515.1431978,1758587515.3184144,245.76449394226074,0.25200843811035156,0.05888938903808594,65.45329093933105,65.51218032836914,66.15877151489258,193.3422088623047
1758587515.4033675,1758587515.5333467,206.39443397521973,0.25534629821777344,0.05888938903808594,65.47713279724121,65.5360221862793,66.17307662963867,190.21844863891602
1758587515.6114006,1758587515.6851943,171.2045669555664,0.17452239990234375,0.05745887756347656,65.2313232421875,65.28878211975098,65.69361686706543,147.30000495910645
1758587515.790342,1758587515.9641237,246.3247776031494,0.3886222839355469,0.062465667724609375,65.36126136779785,65.42372703552246,66.0562515258789,193.22538375854492
1758587516.0368075,1758587516.116831,168.62940788269043,0.03743171691894531,0.06890296936035156,64.3162727355957,64.38517570495605,64.70751762390137,88.1195068359375
1758587516.2097633,1758587516.3319802,209.81740951538086,0.039577484130859375,0.06866455078125,63.9348030090332,64.00346755981445,64.33725357055664,87.8291130065918
1758587516.4197223,1758587516.546009,215.59739112854004,0.6735324859619141,0.07009506225585938,64.53919410705566,64.60928916931152,66.59722328186035,192.1100616455078
1758587516.64038,1758587516.763053,209.41925048828125,0.24008750915527344,0.06794929504394531,63.67349624633789,63.741445541381836,65.43135643005371,131.16979598999023
1758587516.851381,1758587516.9785259,192.4443244934082,0.12350082397460938,0.06914138793945312,63.4613037109375,63.53044509887695,63.85445594787598,129.55880165100098
1758587517.0453496,1758587517.1941845,234.18712615966797,0.14734268188476562,0.06985664367675781,62.97945976257324,63.04931640625,63.35949897766113,130.0048828125
1758587517.2796836,1758587517.4074163,215.3456211090088,0.6501674652099609,0.06985664367675781,64.4526481628418,64.52250480651855,66.75457954406738,193.66979598999023
1758587517.495847,1758587517.622796,221.95863723754883,1.1777877807617188,0.07152557373046875,63.33351135253906,63.40503692626953,65.20342826843262,151.5028476715088
1758587517.7254367,1758587517.9006236,251.1885166168213,0.14853477478027344,0.05817413330078125,64.89443778991699,64.95261192321777,65.34624099731445,129.64630126953125
1758587517.9767697,1758587518.116763,211.39168739318848,0.1270771026611328,0.06961822509765625,64.00513648986816,64.07475471496582,65.60492515563965,131.21438026428223
1758587518.1893623,1758587518.3323207,212.03279495239258,0.033855438232421875,0.06818771362304688,64.19253349304199,64.26072120666504,64.41092491149902,66.5290355682373
1758587518.4015408,1758587518.5479488,218.11389923095703,0.03528594970703125,0.06818771362304688,64.06021118164062,64.12839889526367,64.28313255310059,66.48087501525879
1758587518.6197956,1758587518.7637954,229.52651977539062,0.13494491577148438,0.07104873657226562,62.73651123046875,62.807559967041016,63.08293342590332,66.44892692565918
1758587518.8494692,1758587518.9761581,215.53897857666016,0.2980232238769531,0.06580352783203125,64.93258476257324,64.99838829040527,65.75226783752441,191.43438339233398
1758587519.065162,1758587519.1912355,197.01719284057617,0.2644062042236328,0.060558319091796875,64.89205360412598,64.95261192321777,65.59348106384277,190.57488441467285
1758587519.2733521,1758587519.406572,208.25958251953125,0.23889541625976562,0.05984306335449219,65.44947624206543,65.50931930541992,66.14065170288086,190.54055213928223
1758587519.485824,1758587519.558057,176.7594814300537,0.15664100646972656,0.06604194641113281,65.17314910888672,65.23919105529785,65.79709053039551,147.94564247131348
1758587519.6627169,1758587519.836856,244.12012100219727,0.21958351135253906,0.05936622619628906,65.13333320617676,65.19269943237305,65.78826904296875,192.4419403076172
1758587519.9143746,1758587519.988526,163.56754302978516,0.15807151794433594,0.05841255187988281,65.40274620056152,65.4611587524414,66.0240650177002,148.17214012145996
1758587520.0963323,1758587520.2666967,244.28343772888184,0.25463104248046875,0.061511993408203125,65.0789737701416,65.1404857635498,65.77634811401367,192.40307807922363
1758587520.3424838,1758587520.4178047,171.1587905883789,0.15664100646972656,0.06127357482910156,65.31763076782227,65.37890434265137,65.9322738647461,146.98410034179688
1758587520.5223331,1758587520.6964014,271.05712890625,1.375436782836914,0.06651878356933594,64.34488296508789,64.41140174865723,66.03050231933594,193.0992603302002
1758587520.7938235,1758587520.9117222,210.95943450927734,0.16045570373535156,0.057220458984375,65.4599666595459,65.51718711853027,66.07508659362793,150.44879913330078
1758587521.012336,1758587521.1269906,211.29846572875977,0.16021728515625,0.05793571472167969,65.07015228271484,65.12808799743652,65.69504737854004,151.26347541809082
1758587521.2238145,1758587521.3433359,213.22917938232422,0.12636184692382812,0.06866455078125,63.14253807067871,63.21120262145996,63.87925148010254,150.742769241333
1758587521.4443336,1758587521.6202343,249.2697238922119,0.1766681671142578,0.05793571472167969,65.02962112426758,65.08755683898926,65.52433967590332,129.89044189453125
1758587521.696004,1758587521.8371263,227.3552417755127,0.19168853759765625,0.06937980651855469,63.54665756225586,63.616037368774414,65.11521339416504,131.30545616149902
1758587521.923505,1758587522.051066,203.09853553771973,0.6475448608398438,0.06914138793945312,64.49460983276367,64.56375122070312,66.66851043701172,193.40157508850098
1758587522.1313539,1758587522.265675,205.2466869354248,0.15044212341308594,0.056743621826171875,65.38915634155273,65.4458999633789,65.85478782653809,130.39016723632812
1758587522.3368893,1758587522.418674,177.51145362854004,0.035762786865234375,0.06818771362304688,64.10622596740723,64.17441368103027,64.49651718139648,87.99171447753906
1758587522.5154529,1758587522.6956658,251.10578536987305,0.1461505889892578,0.05817413330078125,65.34671783447266,65.40489196777344,65.80448150634766,129.51350212097168
1758587522.7666707,1758587522.8489835,172.71828651428223,0.037670135498046875,0.06866455078125,63.58909606933594,63.65776062011719,63.98940086364746,87.35203742980957
1758587522.9443367,1758587523.1258762,251.26886367797852,0.14591217041015625,0.05698204040527344,65.63496589660645,65.69194793701172,66.08104705810547,130.2170753479004
1758587523.2031903,1758587523.3408842,212.38350868225098,0.15020370483398438,0.05626678466796875,65.15884399414062,65.2151107788086,65.63115119934082,129.58359718322754
1758587523.4157095,1758587523.5560548,208.9061737060547,0.14972686767578125,0.06580352783203125,65.49358367919922,65.55938720703125,65.96112251281738,130.04732131958008
1758587523.633249,1758587523.7712677,207.05938339233398,0.15091896057128906,0.05698204040527344,65.45567512512207,65.51265716552734,65.9186840057373,129.7624111175537
1758587523.844346,1758587523.924086,170.08328437805176,0.03647804260253906,0.06985664367675781,63.71951103210449,63.78936767578125,64.1031265258789,87.63575553894043
1758587524.0145726,1758587524.1389225,218.79315376281738,0.038623809814453125,0.06842613220214844,63.973188400268555,64.0416145324707,64.36586380004883,87.52012252807617
1758587524.2334867,1758587524.3540044,211.94911003112793,0.03743171691894531,0.06961822509765625,64.09049034118652,64.16010856628418,64.48125839233398,88.0286693572998
1758587524.4455771,1758587524.571279,275.91538429260254,0.13065338134765625,0.06794929504394531,62.10637092590332,62.174320220947266,62.607526779174805,87.73660659790039
1758587524.7216375,1758587524.7870328,151.61633491516113,0.2472400665283203,0.06890296936035156,63.09342384338379,63.16232681274414,63.834428787231445,128.16143035888672
1758587524.873433,1758587525.0001411,196.39348983764648,0.1575946807861328,0.058650970458984375,65.04225730895996,65.10090827941895,65.51170349121094,129.59623336791992
1758587525.081355,1758587525.2187245,207.25345611572266,0.1480579376220703,0.05602836608886719,61.719655990600586,61.77568435668945,62.17193603515625,130.06258010864258
1758587525.2911935,1758587525.4314377,232.42950439453125,1.1358261108398438,0.07152557373046875,62.84046173095703,62.9119873046875,64.2702579498291,128.4334659576416
1758587525.5237162,1758587525.5841484,157.89365768432617,0.02384185791015625,0.0667572021484375,66.98060035705566,67.0473575592041,67.35563278198242,88.45186233520508
1758587525.6817424,1758587525.8631568,254.8689842224121,0.1544952392578125,0.057220458984375,65.02556800842285,65.08278846740723,65.47403335571289,129.62985038757324
1758587525.938932,1758587526.0801044,227.24485397338867,0.1850128173828125,0.06771087646484375,63.42458724975586,63.4922981262207,64.99385833740234,131.1042308807373
1758587526.1663547,1758587526.2943544,215.86155891418457,0.28014183044433594,0.06580352783203125,64.87154960632324,64.93735313415527,65.82856178283691,192.8422451019287
1758587526.3831806,1758587526.5097609,213.66453170776367,0.6489753723144531,0.07009506225585938,64.07427787780762,64.14437294006348,66.37358665466309,192.0461654663086
1758587526.5969875,1758587526.7049937,177.6578426361084,0.3707408905029297,0.06103515625,64.88180160522461,64.94283676147461,65.57583808898926,172.50776290893555
1758587526.7833729,1758587526.9201722,210.20150184631348,0.15997886657714844,0.05698204040527344,65.36054611206055,65.41752815246582,65.83333015441895,130.1262378692627
1758587526.9972959,1758587527.1357374,213.29951286315918,0.1513957977294922,0.05817413330078125,65.25421142578125,65.31238555908203,65.73724746704102,129.9114227294922
1758587527.2144122,1758587527.350003,211.20142936706543,0.148773193359375,0.057697296142578125,65.06800651550293,65.12570381164551,65.52982330322266,129.78196144104004
1758587527.4257545,1758587527.5668592,227.0665168762207,0.17547607421875,0.07009506225585938,63.26174736022949,63.33184242248535,63.851356506347656,129.5630931854248
1758587527.6536028,1758587527.781998,222.97024726867676,0.1735687255859375,0.06866455078125,63.41433525085449,63.48299980163574,65.56987762451172,150.14934539794922
1758587527.876715,1758587527.9962745,208.68992805480957,0.08845329284667969,0.06771087646484375,64.16440010070801,64.23211097717285,64.43905830383301,129.136323928833
1758587528.0894036,1758587528.2120054,212.03136444091797,0.03933906555175781,0.08368492126464844,63.79961967468262,63.883304595947266,64.21041488647461,87.85295486450195
1758587528.3053558,1758587528.4273484,211.03715896606445,0.03790855407714844,0.06961822509765625,63.79842758178711,63.868045806884766,64.19920921325684,88.01555633544922
1758587528.516495,1758587528.6423218,219.89870071411133,0.036716461181640625,0.0667572021484375,64.68057632446289,64.74733352661133,65.07563591003418,88.1187915802002
1758587528.7365081,1758587528.8579006,213.32073211669922,0.038623809814453125,0.06937980651855469,64.19730186462402,64.26668167114258,64.59522247314453,88.07754516601562
1758587528.9499454,1758587529.0730104,215.7278060913086,0.03790855407714844,0.06723403930664062,64.18204307556152,64.24927711486816,64.56375122070312,88.06347846984863
1758587529.1697323,1758587529.28843,206.0256004333496,0.03719329833984375,0.06937980651855469,63.31491470336914,63.384294509887695,63.7056827545166,87.49604225158691
1758587529.3758996,1758587529.5017474,215.00420570373535,0.9076595306396484,0.06937980651855469,64.4686222076416,64.53800201416016,65.9325122833252,190.79351425170898
1758587529.5910485,1758587529.7163408,201.77841186523438,0.2593994140625,0.058650970458984375,65.62137603759766,65.68002700805664,66.31278991699219,190.9799575805664
1758587529.8013542,1758587529.9316711,223.25897216796875,0.4742145538330078,0.06222724914550781,65.15288352966309,65.2151107788086,67.03734397888184,190.9768581390381
1758587530.033334,1758587530.2108822,272.05657958984375,0.18143653869628906,0.05793571472167969,65.42325019836426,65.48118591308594,65.98424911499023,131.34145736694336
1758587530.3059313,1758587530.3646953,219.48003768920898,0.034332275390625,0.06866455078125,62.95943260192871,63.02809715270996,63.35759162902832,149.05619621276855
1758587530.5293612,1758587530.6405396,203.54843139648438,0.15592575073242188,0.056743621826171875,65.66262245178223,65.7193660736084,66.26772880554199,151.6406536102295
1758587530.747334,1758587530.9199185,246.3209629058838,0.2574920654296875,0.059604644775390625,65.2158260345459,65.27543067932129,65.91200828552246,195.16444206237793
1758587531.0023706,1758587531.135297,207.0014476776123,1.4469623565673828,0.0667572021484375,63.915252685546875,63.98200988769531,65.73033332824707,190.76275825500488
1758587531.2095103,1758587531.3500392,211.17067337036133,0.14853477478027344,0.05626678466796875,65.37437438964844,65.4306411743164,65.82808494567871,129.50587272644043
1758587531.4243307,1758587531.5046253,228.94287109375,0.1385211944580078,0.07009506225585938,62.45160102844238,62.52169609069824,62.96682357788086,87.83268928527832
1758587531.6534226,1758587531.7190838,152.146577835083,0.23937225341796875,0.06937980651855469,63.576698303222656,63.64607810974121,64.33486938476562,128.95560264587402
1758587531.809386,1758587531.932691,200.25372505187988,0.19693374633789062,0.06461143493652344,65.26494026184082,65.32955169677734,65.92464447021484,129.7159194946289
1758587532.0097969,1758587532.1485903,208.76026153564453,0.1513957977294922,0.057220458984375,65.37199020385742,65.4292106628418,65.84811210632324,130.4638385772705
1758587532.2186708,1758587532.3035088,172.71089553833008,0.12445449829101562,0.06961822509765625,61.795949935913086,61.86556816101074,62.41178512573242,87.58282661437988
1758587532.3915257,1758587532.516454,211.3337516784668,0.1583099365234375,0.06890296936035156,62.62063980102539,62.68954277038574,63.280344009399414,149.0328311920166
1758587532.6030006,1758587532.7300491,219.67720985412598,0.07987022399902344,0.06747245788574219,64.08524513244629,64.15271759033203,65.57297706604004,152.37164497375488
1758587532.831349,1758587533.007465,244.2631721496582,0.14781951904296875,0.05793571472167969,64.98908996582031,65.04702568054199,65.43850898742676,129.35900688171387
1758587533.0843647,1758587533.222766,211.0269069671631,0.15020370483398438,0.055789947509765625,65.29402732849121,65.34981727600098,65.78898429870605,130.0961971282959
1758587533.2955077,1758587533.3756313,169.92783546447754,0.0362396240234375,0.06794929504394531,64.44859504699707,64.51654434204102,64.84746932983398,88.08207511901855
1758587533.4675534,1758587533.5910718,213.8369083404541,0.035762786865234375,0.06699562072753906,64.61620330810547,64.68319892883301,65.0026798248291,88.29092979431152
1758587533.6892078,1758587533.8696918,274.4626998901367,0.1697540283203125,0.05793571472167969,65.31786918640137,65.37580490112305,65.7804012298584,130.13219833374023
1758587533.9676251,1758587534.08676,211.05647087097168,0.12159347534179688,0.06985664367675781,63.918113708496094,63.98797035217285,64.67652320861816,150.41160583496094
1758587534.187333,1758587534.3637586,247.4977970123291,0.1671314239501953,0.05626678466796875,65.50264358520508,65.55891036987305,65.98639488220215,129.7285556793213
1758587534.4423544,1758587534.5791755,212.22281455993652,0.1609325408935547,0.057220458984375,65.5205249786377,65.57774543762207,65.99736213684082,129.85825538635254
1758587534.6547115,1758587534.7945683,210.96277236938477,0.14853477478027344,0.057220458984375,65.22417068481445,65.28139114379883,65.68694114685059,129.1983127593994
1758587534.869356,1758587534.9471066,165.82512855529785,0.037670135498046875,0.06771087646484375,64.3928050994873,64.46051597595215,64.78714942932129,88.2716178894043
1758587535.0363922,1758587535.162407,213.92035484313965,0.03886222839355469,0.06985664367675781,63.971757888793945,64.0416145324707,64.35823440551758,88.09518814086914
1758587535.250455,1758587535.3768718,215.2392864227295,0.6601810455322266,0.06890296936035156,64.33320045471191,64.40210342407227,65.53936004638672,190.99736213684082
1758587535.4667065,1758587535.655439,257.9483985900879,0.14662742614746094,0.05841255187988281,65.08469581604004,65.14310836791992,65.52720069885254,129.88901138305664
1758587535.731449,1758587535.870337,208.1625461578369,0.1499652862548828,0.055789947509765625,65.39201736450195,65.44780731201172,65.84668159484863,130.05781173706055
1758587535.9397106,1758587536.0249283,233.8879108428955,0.13637542724609375,0.06818771362304688,62.77155876159668,62.83974647521973,63.34257125854492,87.84198760986328
1758587536.1737478,1758587536.2390416,151.63350105285645,0.2334117889404297,0.07200241088867188,63.55118751525879,63.62318992614746,64.30172920227051,128.69834899902344
1758587536.3293493,1758587536.4545891,274.89757537841797,0.1881122589111328,0.06842613220214844,63.60483169555664,63.67325782775879,65.18697738647461,130.80525398254395
1758587536.6083915,1758587536.6704874,216.43853187561035,0.03886222839355469,0.07081031799316406,63.073158264160156,63.14396858215332,63.48228454589844,87.82601356506348
1758587536.8283532,1758587536.884991,207.51070976257324,0.036716461181640625,0.06985664367675781,63.46845626831055,63.538312911987305,63.863515853881836,151.08537673950195
1758587537.0393908,1758587537.1016247,274.5680809020996,0.12421607971191406,0.07152557373046875,62.54458427429199,62.61610984802246,63.00854682922363,151.2737274169922
1758587537.3141112,1758587537.316139,73.56452941894531,0.016689300537109375,0.06818771362304688,63.58909606933594,63.657283782958984,63.76338005065918,64.79191780090332
1758587537.3878157,1758587537.5309665,213.8524055480957,0.03504753112792969,0.06771087646484375,64.1930103302002,64.26072120666504,64.41545486450195,66.62869453430176
1758587537.6053753,1758587537.745784,209.30218696594238,0.03647804260253906,0.06771087646484375,64.61906433105469,64.68677520751953,64.86105918884277,66.67900085449219
1758587537.818332,1758587537.9613688,209.29455757141113,0.03528594970703125,0.06818771362304688,63.62581253051758,63.694000244140625,63.84730339050293,65.96565246582031
1758587538.031366,1758587538.1761827,214.31827545166016,0.034332275390625,0.07700920104980469,64.57281112670898,64.64982032775879,64.80717658996582,66.71881675720215
1758587538.2493312,1758587538.391082,212.08477020263672,0.03457069396972656,0.06818771362304688,64.08190727233887,64.15009498596191,64.30983543395996,66.22099876403809
1758587538.461562,1758587538.6061769,214.11895751953125,0.03600120544433594,0.07653236389160156,64.4075870513916,64.4841194152832,64.64409828186035,66.53213500976562
1758587538.6758244,1758587538.8210356,213.8509750366211,0.03409385681152344,0.06794929504394531,64.25929069519043,64.32723999023438,64.4826889038086,66.35808944702148
1758587538.8897784,1758587539.0362167,217.89312362670898,0.03600120544433594,0.0743865966796875,64.4373893737793,64.51177597045898,64.69440460205078,66.6203498840332
1758587539.1113548,1758587539.2520227,208.32252502441406,0.03457069396972656,0.06842613220214844,64.68796730041504,64.75639343261719,65.02628326416016,67.3971176147461
1758587539.3233662,1758587539.46666,210.03341674804688,0.035762786865234375,0.06818771362304688,64.19801712036133,64.26620483398438,64.42451477050781,66.31255149841309
1758587539.537364,1758587539.6830962,231.1079502105713,0.1277923583984375,0.07867813110351562,62.770843505859375,62.84952163696289,63.12084197998047,66.49565696716309
1758587539.7686236,1758587539.8961408,216.60232543945312,0.2987384796142578,0.06628036499023438,65.4447078704834,65.51098823547363,66.3003921508789,192.76142120361328
1758587539.9854097,1758587540.1106968,195.25146484375,0.2803802490234375,0.061511993408203125,65.25897979736328,65.32049179077148,65.93441963195801,190.27400016784668
1758587540.1848657,1758587540.2026296,168.58816146850586,0.0362396240234375,0.0667572021484375,61.31792068481445,61.38467788696289,61.73276901245117,148.41175079345703
1758587540.3573358,1758587540.4153836,209.53965187072754,0.035762786865234375,0.06914138793945312,63.92359733581543,63.99273872375488,64.31746482849121,151.26943588256836
1758587540.5669813,1758587540.6300395,150.7101058959961,0.2665519714355469,0.06985664367675781,65.21105766296387,65.28091430664062,67.05617904663086,129.15825843811035
1758587540.7213798,1758587540.845924,191.30182266235352,0.04792213439941406,0.06937980651855469,63.82322311401367,63.89260292053223,64.03589248657227,128.4172534942627
1758587540.91637,1758587541.0613213,213.3009433746338,0.035762786865234375,0.06937980651855469,63.71569633483887,63.78507614135742,63.945770263671875,66.03503227233887
1758587541.1333644,1758587541.2775636,214.3118381500244,0.11682510375976562,0.06890296936035156,62.34574317932129,62.41464614868164,62.79134750366211,66.09821319580078
1758587541.3478222,1758587541.4921272,230.1616668701172,0.1811981201171875,0.06723403930664062,63.17591667175293,63.24315071105957,64.78667259216309,194.42152976989746
1758587541.5781333,1758587541.7052093,216.0637378692627,0.3170967102050781,0.0667572021484375,64.95428085327148,65.02103805541992,65.80877304077148,191.8044090270996
1758587541.7943695,1758587541.9201057,197.95870780944824,0.2899169921875,0.06079673767089844,65.22250175476074,65.28329849243164,65.95945358276367,190.5350685119629
1758587542.0001533,1758587542.071843,178.43365669250488,0.16188621520996094,0.057697296142578125,65.49453735351562,65.5522346496582,66.1153793334961,147.9165554046631
1758587542.1787236,1758587542.350478,262.6304626464844,0.16880035400390625,0.055789947509765625,65.76299667358398,65.81878662109375,66.29586219787598,213.99354934692383
1758587542.4414997,1758587542.5033584,214.89691734313965,0.3898143768310547,0.07414817810058594,64.00132179260254,64.07546997070312,65.7804012298584,124.72748756408691
1758587542.6603632,1758587542.717978,208.5564136505127,0.035762786865234375,0.06794929504394531,64.15414810180664,64.22209739685059,64.55850601196289,150.7582664489746
1758587542.8703532,1758587542.9323957,216.04084968566895,0.03743171691894531,0.06914138793945312,63.9650821685791,64.03422355651855,64.35966491699219,150.90346336364746
1758587543.0903583,1758587543.1483126,208.6961269378662,0.036716461181640625,0.06866455078125,63.90976905822754,63.97843360900879,64.32509422302246,151.28731727600098
1758587543.2992,1758587543.3625605,150.68626403808594,0.2338886260986328,0.06747245788574219,64.6512508392334,64.71872329711914,65.38939476013184,127.59685516357422
1758587543.4533796,1758587543.5770483,220.23606300354004,0.17023086547851562,0.06699562072753906,65.22512435913086,65.2921199798584,65.69290161132812,129.7628879547119
1758587543.6740277,1758587543.7924106,213.60135078430176,0.1735687255859375,0.05841255187988281,65.00363349914551,65.06204605102539,65.51861763000488,129.75835800170898
1758587543.8878129,1758587544.0092857,207.73959159851074,0.2410411834716797,0.07104873657226562,63.732147216796875,63.80319595336914,65.51814079284668,131.00290298461914
1758587544.0957017,1758587544.2246764,215.07549285888672,0.18286705017089844,0.06890296936035156,63.39693069458008,63.46583366394043,64.99123573303223,130.67364692687988
1758587544.3109417,1758587544.438297,216.4766788482666,0.2887248992919922,0.06580352783203125,64.69988822937012,64.76569175720215,66.42889976501465,192.94261932373047
1758587544.5285525,1758587544.6551955,202.0883560180664,0.34356117248535156,0.07176399230957031,63.06624412536621,63.13800811767578,64.13602828979492,129.5769214630127
1758587544.7307897,1758587544.867974,211.6081714630127,0.1552104949951172,0.056743621826171875,65.45543670654297,65.51218032836914,65.92607498168945,129.55737113952637
1758587544.9442086,1758587545.0840023,213.46044540405273,0.08940696716308594,0.0667572021484375,64.81623649597168,64.88299369812012,65.38701057434082,130.36394119262695
1758587545.1578128,1758587545.300545,207.08537101745605,0.1392364501953125,0.06985664367675781,62.40653991699219,62.476396560668945,62.833309173583984,129.24647331237793
1758587545.3650422,1758587545.513173,223.65736961364746,0.19168853759765625,0.06747245788574219,64.87560272216797,64.94307518005371,65.85502624511719,195.25957107543945
1758587545.5933635,1758587545.7283926,209.82122421264648,0.1544952392578125,0.0591278076171875,65.33670425415039,65.39583206176758,65.80162048339844,130.1596164703369
1758587545.8033516,1758587545.9456744,228.11603546142578,0.19884109497070312,0.06937980651855469,63.30084800720215,63.3702278137207,64.9256706237793,130.87892532348633
1758587546.0316162,1758587546.1594517,203.38726043701172,0.2949237823486328,0.06723403930664062,64.74781036376953,64.81504440307617,65.58656692504883,192.39139556884766
1758587546.2351258,1758587546.3105567,173.7058162689209,0.16021728515625,0.05841255187988281,65.42301177978516,65.48142433166504,66.05386734008789,148.83112907409668
1758587546.4123518,1758587546.526774,213.20867538452148,0.3483295440673828,0.08034706115722656,64.74184989929199,64.82219696044922,65.89436531066895,151.17669105529785
1758587546.6256974,1758587546.7419417,207.9789638519287,0.1609325408935547,0.05841255187988281,65.51814079284668,65.57655334472656,66.13397598266602,150.07686614990234
1758587546.8337815,1758587546.8949225,214.8127555847168,0.034332275390625,0.06890296936035156,63.78769874572754,63.85660171508789,64.18538093566895,150.50578117370605
1758587547.051394,1758587547.1095412,213.0563259124756,0.034809112548828125,0.06747245788574219,64.29719924926758,64.36467170715332,64.70155715942383,151.20935440063477
1758587547.2645996,1758587547.3251793,216.85123443603516,0.03528594970703125,0.07843971252441406,64.20636177062988,64.2848014831543,64.64004516601562,151.02434158325195
1758587547.4815605,1758587547.5327523,191.89119338989258,0.03790855407714844,0.07081031799316406,50.06527900695801,50.13608932495117,50.467729568481445,136.72447204589844
1758587547.6736052,1758587547.7332757,211.6100788116455,0.03600120544433594,0.06937980651855469,64.50891494750977,64.57829475402832,64.90826606750488,151.58677101135254
1758587547.8883944,1758587547.949371,211.96651458740234,0.03504753112792969,0.07009506225585938,63.97271156311035,64.04280662536621,64.3613338470459,151.41558647155762
1758587548.1033933,1758587548.16128,212.00275421142578,0.03552436828613281,0.08535385131835938,63.79508972167969,63.88044357299805,64.21685218811035,151.00884437561035
1758587548.3193603,1758587548.3765702,207.78608322143555,0.03552436828613281,0.08440017700195312,63.76791000366211,63.85231018066406,64.19038772583008,150.55227279663086
1758587548.5272768,1758587548.5903294,150.32505989074707,0.2357959747314453,0.06914138793945312,64.46623802185059,64.53537940979004,66.27964973449707,128.39722633361816
1758587548.677757,1758587548.8065333,214.9181365966797,0.17690658569335938,0.06842613220214844,63.52996826171875,63.5983943939209,65.14763832092285,130.6133270263672
1758587548.893215,1758587549.0199325,215.18445014953613,0.040531158447265625,0.06890296936035156,64.0568733215332,64.12577629089355,64.48173522949219,87.51630783081055
1758587549.112743,1758587549.2349093,212.65029907226562,0.0362396240234375,0.0705718994140625,64.3312931060791,64.40186500549316,64.73684310913086,88.06085586547852
1758587549.3303406,1758587549.5122018,260.3433132171631,0.1590251922607422,0.057697296142578125,65.23895263671875,65.29664993286133,65.71078300476074,129.78243827819824
1758587549.5944135,1758587549.7270544,203.25970649719238,0.15091896057128906,0.06747245788574219,65.34624099731445,65.4137134552002,65.82117080688477,129.67801094055176
1758587549.8013372,1758587549.8797069,169.05760765075684,0.037670135498046875,0.06723403930664062,64.6669864654541,64.73422050476074,65.06609916687012,88.16123008728027
1758587549.9765763,1758587550.1582282,256.0546398162842,0.16117095947265625,0.05793571472167969,64.87035751342773,64.92829322814941,65.36412239074707,129.774808883667
1758587550.232783,1758587550.3745418,227.49948501586914,0.1971721649169922,0.06890296936035156,63.28940391540527,63.358306884765625,63.942670822143555,129.45294380187988
1758587550.4610415,1758587550.5881264,214.96248245239258,0.3325939178466797,0.06842613220214844,65.04178047180176,65.1102066040039,65.92273712158203,131.12497329711914
1758587550.677395,1758587550.804807,218.05787086486816,0.035762786865234375,0.06937980651855469,63.5685920715332,63.63797187805176,63.967227935791016,87.33677864074707
1758587550.8993719,1758587551.0204406,214.40672874450684,0.03886222839355469,0.08845329284667969,63.54808807373047,63.63654136657715,63.98153305053711,87.50176429748535
1758587551.1178043,1758587551.2357898,209.60497856140137,0.03886222839355469,0.06914138793945312,62.935590744018555,63.00473213195801,63.352346420288086,87.62359619140625
1758587551.3275437,1758587551.4502974,210.79039573669434,0.03790855407714844,0.0705718994140625,64.21208381652832,64.28265571594238,64.60714340209961,88.19389343261719
1758587551.5384448,1758587551.6645637,214.28632736206055,0.7040500640869141,0.06985664367675781,64.49627876281738,64.56613540649414,66.73431396484375,192.05164909362793
1758587551.7538168,1758587551.8799136,224.79677200317383,0.1990795135498047,0.06842613220214844,64.4383430480957,64.50676918029785,65.37985801696777,150.8347988128662
1758587551.9845078,1758587552.1584597,249.09543991088867,0.4291534423828125,0.06341934204101562,64.80526924133301,64.86868858337402,65.55390357971191,193.1154727935791
1758587552.2337456,1758587552.3736272,207.9780101776123,0.1697540283203125,0.0591278076171875,64.79287147521973,64.85199928283691,65.28496742248535,129.38690185546875
1758587552.4453814,1758587552.5265105,172.47438430786133,0.037670135498046875,0.06771087646484375,63.91549110412598,63.98320198059082,64.32151794433594,87.80384063720703
1758587552.617977,1758587552.7418613,210.0975513458252,0.0400543212890625,0.07104873657226562,62.73007392883301,62.80112266540527,63.1253719329834,87.10098266601562
1758587552.8282404,1758587552.9546294,215.1637077331543,0.5762577056884766,0.07653236389160156,64.52178955078125,64.59832191467285,66.5900707244873,192.19017028808594
1758587553.047668,1758587553.1715522,210.1433277130127,0.2391338348388672,0.07104873657226562,63.10606002807617,63.17710876464844,63.9185905456543,129.5938491821289
1758587553.2613976,1758587553.3839946,198.2414722442627,0.23746490478515625,0.07462501525878906,64.96167182922363,65.03629684448242,65.73200225830078,130.3856372833252
1758587553.4597957,1758587553.6008072,226.56726837158203,0.18405914306640625,0.06985664367675781,62.98398971557617,63.05384635925293,64.60404396057129,130.53655624389648
1758587553.686526,1758587553.8137662,215.5458927154541,0.6732940673828125,0.0705718994140625,64.08166885375977,64.15224075317383,65.29998779296875,191.4844512939453
1758587553.9022226,1758587554.0276248,198.37069511413574,0.26869773864746094,0.06031990051269531,65.2458667755127,65.30618667602539,65.97781181335449,189.9125576019287
1758587554.1037712,1758587554.1214767,164.13497924804688,0.03457069396972656,0.06818771362304688,59.42845344543457,59.49664115905762,59.828996658325195,146.43239974975586
1758587554.268051,1758587554.3308017,150.3901481628418,0.22840499877929688,0.06842613220214844,65.05179405212402,65.12022018432617,66.80536270141602,128.6020278930664
1758587554.4224448,1758587554.5480316,215.96169471740723,0.05221366882324219,0.06890296936035156,63.416242599487305,63.485145568847656,63.662052154541016,129.38475608825684
1758587554.6402304,1758587554.7631984,210.48855781555176,0.039577484130859375,0.07748603820800781,63.89045715332031,63.96794319152832,64.30506706237793,87.7680778503418
1758587554.85339,1758587554.979129,214.02311325073242,0.04076957702636719,0.06914138793945312,62.79444694519043,62.86358833312988,63.195228576660156,87.52202987670898
1758587555.074669,1758587555.2551877,251.40857696533203,0.16117095947265625,0.05793571472167969,65.48070907592773,65.53864479064941,65.96159934997559,125.39124488830566
1758587555.3322353,1758587555.4753985,211.47680282592773,0.16617774963378906,0.06103515625,63.98797035217285,64.04900550842285,64.4843578338623,133.1496238708496
1758587555.5438306,1758587555.6296632,170.1366901397705,0.03790855407714844,0.06818771362304688,60.524702072143555,60.5928897857666,60.92262268066406,83.78052711486816
1758587555.7163937,1758587555.8416507,214.0488624572754,0.03981590270996094,0.06914138793945312,63.649892807006836,63.71903419494629,64.04733657836914,87.9523754119873
1758587555.9305887,1758587556.0564234,217.52548217773438,0.03838539123535156,0.07152557373046875,64.0404224395752,64.11194801330566,64.44191932678223,88.12761306762695
1758587556.1553326,1758587556.333336,248.3692169189453,0.15234947204589844,0.05817413330078125,65.63615798950195,65.69433212280273,66.09559059143066,129.93788719177246
1758587556.4073591,1758587556.486613,169.0835952758789,0.03886222839355469,0.06794929504394531,63.79365921020508,63.86160850524902,64.18752670288086,87.86869049072266
1758587556.5803595,1758587556.7023554,212.083101272583,0.03910064697265625,0.06866455078125,63.883066177368164,63.951730728149414,64.28337097167969,88.15670013427734
1758587556.7925901,1758587556.9173448,219.1920280456543,0.03814697265625,0.06747245788574219,64.6512508392334,64.71872329711914,65.05942344665527,88.08016777038574
1758587557.018607,1758587557.1956148,246.02174758911133,0.15354156494140625,0.05793571472167969,65.06896018981934,65.12689590454102,65.53316116333008,129.9307346343994
1758587557.2716007,1758587557.410782,215.0552272796631,0.15163421630859375,0.057697296142578125,65.93942642211914,65.99712371826172,66.4057731628418,130.63502311706543
1758587557.4867892,1758587557.628455,227.56624221801758,0.18310546875,0.06961822509765625,63.294172286987305,63.36379051208496,64.95904922485352,131.03151321411133
1758587557.7145164,1758587557.8417318,204.16712760925293,0.3528594970703125,0.0667572021484375,64.92042541503906,64.9871826171875,66.86949729919434,193.251371383667
1758587557.923356,1758587558.0567844,227.26035118103027,0.1735687255859375,0.05841255187988281,65.28592109680176,65.34433364868164,65.77324867248535,130.78689575195312
1758587558.1546443,1758587558.273892,268.2478427886963,0.1766681671142578,0.07033348083496094,62.94679641723633,63.01712989807129,64.73326683044434,149.6260166168213
1758587558.423566,1758587558.4894896,216.40634536743164,0.04863739013671875,0.07009506225585938,63.458919525146484,63.529014587402344,63.9042854309082,150.22587776184082
1758587558.6454077,1758587558.70352,209.5932960510254,0.0362396240234375,0.0705718994140625,64.38946723937988,64.46003913879395,64.81051445007324,151.34358406066895
1758587558.857355,1758587558.9191964,212.80956268310547,0.03504753112792969,0.07557868957519531,63.38047981262207,63.456058502197266,63.79079818725586,151.21841430664062
1758587559.0703256,1758587559.133062,150.06017684936523,0.2503395080566406,0.09059906005859375,64.65649604797363,64.74709510803223,66.47634506225586,128.2811164855957
1758587559.2205331,1758587559.3484533,201.1420726776123,1.1439323425292969,0.07367134094238281,63.616037368774414,63.6897087097168,66.25556945800781,131.01458549499512
1758587559.4218168,1758587559.5639858,212.85676956176758,0.035762786865234375,0.06747245788574219,64.29576873779297,64.36324119567871,64.51892852783203,66.37239456176758
1758587559.6383631,1758587559.7796454,209.04946327209473,0.03457069396972656,0.06723403930664062,64.11385536193848,64.18108940124512,64.35012817382812,66.19834899902344
1758587559.847559,1758587559.9964578,234.40861701965332,0.13518333435058594,0.06818771362304688,62.35074996948242,62.41893768310547,62.69645690917969,66.1325454711914
1758587560.0821154,1758587560.2091253,216.17722511291504,0.6604194641113281,0.06890296936035156,64.55469131469727,64.62359428405762,65.65284729003906,191.66922569274902
1758587560.3017771,1758587560.425291,221.62961959838867,0.03886222839355469,0.06866455078125,63.8117790222168,63.88044357299805,64.21113014221191,87.76116371154785
1758587560.5235786,1758587560.7028162,249.0406036376953,0.14710426330566406,0.057697296142578125,64.91541862487793,64.97311592102051,65.37032127380371,129.64439392089844
1758587560.778723,1758587560.9174206,212.8136157989502,0.15282630920410156,0.0591278076171875,65.20509719848633,65.26422500610352,65.66643714904785,129.81319427490234
1758587560.9935062,1758587561.1322927,209.17129516601562,0.18143653869628906,0.058650970458984375,65.55914878845215,65.61779975891113,66.06888771057129,130.36060333251953
1758587561.2084467,1758587561.3469517,212.18395233154297,0.15473365783691406,0.057220458984375,65.27495384216309,65.33217430114746,65.7496452331543,129.68921661376953
1758587561.4229915,1758587561.5640018,226.84288024902344,0.17905235290527344,0.06818771362304688,63.28749656677246,63.35568428039551,63.89498710632324,129.8203468322754
1758587561.650849,1758587561.7780137,214.24531936645508,0.22554397583007812,0.07653236389160156,64.22114372253418,64.29767608642578,64.68653678894043,129.03761863708496
1758587561.865242,1758587561.9923546,197.4198818206787,1.5015602111816406,0.06723403930664062,63.642024993896484,63.709259033203125,65.53292274475098,191.786527633667
1758587562.067344,1758587562.2071428,233.0329418182373,0.1842975616455078,0.05817413330078125,65.0944709777832,65.15264511108398,65.57369232177734,130.22780418395996
1758587562.3008041,1758587562.3609316,210.4341983795166,0.03314018249511719,0.06890296936035156,62.96205520629883,63.03095817565918,63.36569786071777,150.13980865478516
1758587562.5113611,1758587562.5742111,150.61473846435547,0.5345344543457031,0.07128715515136719,64.52178955078125,64.59307670593262,65.37389755249023,127.04133987426758
1758587562.6654027,1758587562.7890208,198.21572303771973,0.1506805419921875,0.05817413330078125,65.61064720153809,65.66882133483887,66.08796119689941,129.868745803833
1758587562.8664095,1758587563.006184,212.25953102111816,0.13899803161621094,0.06818771362304688,63.72189521789551,63.790082931518555,64.36944007873535,130.50460815429688
1758587563.0823574,1758587563.2217598,225.72779655456543,0.1800060272216797,0.06866455078125,63.5838508605957,63.65251541137695,65.23489952087402,131.03604316711426
1758587563.308247,1758587563.4361145,216.65334701538086,0.2989768981933594,0.06580352783203125,65.03152847290039,65.09733200073242,66.99824333190918,194.01836395263672
1758587563.5256672,1758587563.6521938,230.91769218444824,1.2576580047607422,0.07200241088867188,63.31276893615723,63.3847713470459,65.30284881591797,151.7794132232666
1758587563.7567225,1758587563.9304206,243.67213249206543,0.14901161193847656,0.058650970458984375,64.97716903686523,65.03582000732422,65.45042991638184,129.29344177246094
1758587564.0013285,1758587564.0837111,171.06866836547852,0.03647804260253906,0.07081031799316406,63.97867202758789,64.04948234558105,64.37301635742188,88.14167976379395
1758587564.181171,1758587564.3610523,256.19006156921387,0.14710426330566406,0.06604194641113281,65.32049179077148,65.38653373718262,65.77920913696289,129.92048263549805
1758587564.4375253,1758587564.5765252,231.04047775268555,0.17142295837402344,0.057697296142578125,65.54555892944336,65.60325622558594,66.01691246032715,130.1567554473877
1758587564.6723335,1758587564.7298114,207.70740509033203,0.034332275390625,0.06961822509765625,63.06767463684082,63.13729286193848,63.477516174316406,150.04301071166992
1758587564.88239,1758587564.944339,214.80250358581543,0.03504753112792969,0.06890296936035156,64.17083740234375,64.2397403717041,64.57304954528809,151.0183811187744
1758587565.0993612,1758587565.1599755,211.28153800964355,0.03743171691894531,0.06961822509765625,63.88711929321289,63.95673751831055,64.30292129516602,150.58302879333496
1758587565.3133945,1758587565.3751197,216.0511016845703,0.03528594970703125,0.06890296936035156,64.02206420898438,64.09096717834473,64.42832946777344,151.56292915344238
1758587565.529554,1758587565.5902326,211.9767665863037,0.04363059997558594,0.06723403930664062,64.36657905578613,64.43381309509277,64.7745132446289,151.4573097229004
1758587565.7474954,1758587565.8066204,210.03293991088867,0.03743171691894531,0.06914138793945312,63.48896026611328,63.558101654052734,63.88258934020996,151.3986587524414
1758587565.9593935,1758587566.0224652,219.03610229492188,0.036716461181640625,0.07128715515136719,63.69328498840332,63.76457214355469,64.09525871276855,151.55315399169922
1758587566.1823597,1758587566.363209,256.2754154205322,0.26679039001464844,0.06079673767089844,65.2005672454834,65.2613639831543,65.95802307128906,192.75569915771484
1758587566.438775,1758587566.5147932,180.29379844665527,0.15687942504882812,0.05841255187988281,65.6895637512207,65.74797630310059,66.2996768951416,148.84543418884277
1758587566.6213608,1758587566.7930443,242.65336990356445,0.2760887145996094,0.06079673767089844,65.08421897888184,65.14501571655273,65.82498550415039,192.57187843322754
1758587566.8793755,1758587567.0081124,197.74937629699707,0.2791881561279297,0.059604644775390625,65.40560722351074,65.46521186828613,66.13612174987793,190.3553009033203
1758587567.0873759,1758587567.1597533,177.2024631500244,0.16355514526367188,0.056743621826171875,65.47260284423828,65.52934646606445,66.10631942749023,147.9482650756836
1758587567.2683592,1758587567.4387121,248.3687400817871,0.26488304138183594,0.05984306335449219,65.34671783447266,65.40656089782715,66.06245040893555,194.33856010437012
1758587567.5243556,1758587567.6537151,223.02484512329102,1.3968944549560547,0.06699562072753906,64.27192687988281,64.33892250061035,65.9794807434082,189.8031234741211
1758587567.7478273,1758587567.8081949,212.58234977722168,0.03504753112792969,0.07891654968261719,62.35647201538086,62.43538856506348,62.77179718017578,149.4004726409912
1758587567.9644063,1758587568.0224426,212.04328536987305,0.03552436828613281,0.0705718994140625,63.35568428039551,63.42625617980957,63.74406814575195,151.19266510009766
1758587568.1766014,1758587568.2373488,215.8501148223877,0.03528594970703125,0.07009506225585938,63.262224197387695,63.332319259643555,63.66133689880371,150.1145362854004
1758587568.3930004,1758587568.4499907,192.07453727722168,0.035762786865234375,0.06914138793945312,47.8672981262207,47.936439514160156,48.27451705932617,135.2524757385254
1758587568.5851882,1758587568.6480947,149.8408317565918,0.28061866760253906,0.06914138793945312,64.04733657836914,64.1164779663086,64.87011909484863,126.38664245605469
1758587568.7363482,1758587568.8620858,200.24847984313965,0.1494884490966797,0.0667572021484375,65.5663013458252,65.63305854797363,66.02883338928223,129.50968742370605
1758587568.9404058,1758587569.0161395,162.03570365905762,0.03719329833984375,0.06914138793945312,60.628414154052734,60.69755554199219,61.0346794128418,84.33747291564941
1758587569.1025918,1758587569.2280085,212.82625198364258,0.03695487976074219,0.0705718994140625,63.6444091796875,63.71498107910156,64.04471397399902,88.2408618927002
1758587569.3174133,1758587569.4428003,213.60397338867188,0.037670135498046875,0.06937980651855469,64.12696838378906,64.19634819030762,64.52703475952148,88.11688423156738
1758587569.5311263,1758587569.6573882,215.31128883361816,0.9088516235351562,0.07104873657226562,64.17202949523926,64.24307823181152,65.52481651306152,190.80471992492676
1758587569.7465863,1758587569.8722649,199.0487575531006,0.2913475036621094,0.060558319091796875,65.31596183776855,65.37652015686035,66.09106063842773,190.77014923095703
1758587569.9533756,1758587570.0237453,175.20666122436523,0.164031982421875,0.05936622619628906,65.04321098327637,65.10257720947266,65.75489044189453,148.2563018798828
1758587570.128718,1758587570.302403,249.4029998779297,0.2675056457519531,0.06079673767089844,64.9557113647461,65.01650810241699,65.6733512878418,193.4223175048828
1758587570.3814368,1758587570.4561033,224.38955307006836,0.18930435180664062,0.07128715515136719,63.44151496887207,63.51280212402344,65.21940231323242,147.84836769104004
1758587570.605941,1758587570.6711047,213.9129638671875,0.13184547424316406,0.07867813110351562,62.839508056640625,62.91818618774414,63.21978569030762,127.45547294616699
1758587570.8200123,1758587570.8856356,151.3831615447998,0.2396106719970703,0.07033348083496094,62.67237663269043,62.74271011352539,64.48864936828613,129.0750503540039
1758587570.9715478,1758587571.098867,201.1392116546631,0.12183189392089844,0.06818771362304688,64.98217582702637,65.05036354064941,66.49374961853027,130.8279037475586
1758587571.1728342,1758587571.3147163,214.87784385681152,0.035762786865234375,0.06985664367675781,64.1632080078125,64.23306465148926,64.40258026123047,66.66088104248047
1758587571.3878763,1758587571.532406,229.70962524414062,0.1342296600341797,0.07081031799316406,62.10446357727051,62.17527389526367,62.45851516723633,66.53022766113281
1758587571.6181633,1758587571.7449782,221.24290466308594,0.038623809814453125,0.06604194641113281,64.69440460205078,64.76044654846191,65.11306762695312,88.32597732543945
1758587571.8395386,1758587571.9611719,211.85588836669922,0.03743171691894531,0.08130073547363281,63.88235092163086,63.96365165710449,64.29147720336914,87.68892288208008
1758587572.0574708,1758587572.2384934,256.14309310913086,0.15234947204589844,0.05698204040527344,65.48357009887695,65.54055213928223,65.95611572265625,129.7473907470703
1758587572.313759,1758587572.4539573,216.18294715881348,0.15592575073242188,0.05817413330078125,65.19746780395508,65.25564193725586,65.66500663757324,130.02443313598633
1758587572.5301104,1758587572.6690056,208.57810974121094,0.1537799835205078,0.0591278076171875,65.2923583984375,65.35148620605469,65.76228141784668,129.46319580078125
1758587572.7388356,1758587572.822795,176.8510341644287,0.03814697265625,0.06842613220214844,63.58218193054199,63.65060806274414,63.98200988769531,87.84604072570801
1758587572.9203372,1758587573.0994117,251.2342929840088,0.15306472778320312,0.05888938903808594,64.98146057128906,65.04034996032715,65.43350219726562,129.6555995941162
1758587573.1716866,1758587573.2524686,168.81418228149414,0.03552436828613281,0.06771087646484375,64.18180465698242,64.24951553344727,64.57805633544922,87.99338340759277
1758587573.343393,1758587573.4678848,224.1954803466797,0.03790855407714844,0.07033348083496094,63.86160850524902,63.931941986083984,64.2540454864502,87.77689933776855
1758587573.5677292,1758587573.74513,251.08909606933594,0.1571178436279297,0.057697296142578125,65.38701057434082,65.4447078704834,65.85121154785156,130.01680374145508
1758587573.818924,1758587573.9606144,217.71764755249023,0.15878677368164062,0.05841255187988281,65.338134765625,65.39654731750488,65.8419132232666,129.791259765625
1758587574.036825,1758587574.1760235,207.83543586730957,0.17499923706054688,0.06866455078125,64.67390060424805,64.7425651550293,65.18435478210449,129.89425659179688
1758587574.2514493,1758587574.3901699,212.15438842773438,0.16450881958007812,0.059604644775390625,64.60165977478027,64.66126441955566,65.1085376739502,128.37672233581543
1758587574.467547,1758587574.6050262,211.07244491577148,0.156402587890625,0.05841255187988281,65.20867347717285,65.26708602905273,65.68408012390137,129.99963760375977
1758587574.681,1758587574.82145,213.6702537536621,1.1332035064697266,0.072479248046875,63.240766525268555,63.31324577331543,64.87393379211426,130.0051212310791
1758587574.8947713,1758587575.0373764,228.9137840270996,0.18453598022460938,0.06961822509765625,63.57717514038086,63.646793365478516,64.19730186462402,129.927396774292
1758587575.1247184,1758587575.252476,220.19481658935547,0.17881393432617188,0.0705718994140625,63.315629959106445,63.38620185852051,65.28115272521973,149.7049331665039
1758587575.3465533,1758587575.4680123,208.89854431152344,0.04553794860839844,0.07009506225585938,63.231468200683594,63.30156326293945,63.63391876220703,150.30312538146973
1758587575.5564108,1758587575.6826968,216.3848876953125,0.03743171691894531,0.06890296936035156,63.924312591552734,63.993215560913086,64.31198120117188,88.00435066223145
1758587575.7763507,1758587575.8993096,274.045467376709,0.1342296600341797,0.07104873657226562,62.42990493774414,62.500953674316406,62.958717346191406,87.81266212463379
1758587576.0593395,1758587576.1748886,212.25857734680176,0.17070770263671875,0.057697296142578125,65.50359725952148,65.56129455566406,65.96088409423828,150.1483917236328
1758587576.2753642,1758587576.3897243,275.1765251159668,0.1304149627685547,0.07605552673339844,65.18077850341797,65.25683403015137,65.68479537963867,150.92134475708008
1758587576.5547183,1758587576.60794,265.57111740112305,0.213623046875,0.0705718994140625,62.90698051452637,62.97755241394043,63.47012519836426,151.20697021484375
1758587576.821104,1758587576.8225853,67.57426261901855,0.01430511474609375,0.06890296936035156,62.97421455383301,63.04311752319336,63.15040588378906,63.945770263671875
1758587576.8923626,1758587577.0380292,230.72552680969238,0.13589859008789062,0.07009506225585938,62.55507469177246,62.62516975402832,62.90626525878906,66.61248207092285
1758587577.123238,1758587577.2509794,199.54729080200195,0.27060508728027344,0.07653236389160156,65.0031566619873,65.0796890258789,65.9489631652832,192.63529777526855
1758587577.3324594,1758587577.4658024,210.3407382965088,0.2636909484863281,0.05841255187988281,65.64474105834961,65.70315361022949,66.35856628417969,191.5137767791748
1758587577.5523553,1758587577.681621,201.27630233764648,1.3992786407470703,0.06723403930664062,64.38541412353516,64.4526481628418,66.10250473022461,189.6817684173584
1758587577.7573776,1758587577.835048,178.2073974609375,0.03910064697265625,0.06961822509765625,63.620567321777344,63.690185546875,64.0115737915039,87.73660659790039
1758587577.9357173,1758587578.1128206,246.95301055908203,0.15020370483398438,0.0591278076171875,65.20557403564453,65.26470184326172,65.67168235778809,129.98318672180176
1758587578.1884453,1758587578.3280816,213.17744255065918,0.1552104949951172,0.06842613220214844,65.3235912322998,65.39201736450195,65.84405899047852,129.89282608032227
1758587578.4052389,1758587578.544434,209.4426155090332,0.07534027099609375,0.06818771362304688,64.9113655090332,64.97955322265625,66.38669967651367,131.21891021728516
1758587578.6183677,1758587578.7603874,207.78536796569824,0.03409385681152344,0.06771087646484375,64.03398513793945,64.1016960144043,64.2547607421875,66.12515449523926
1758587578.8263206,1758587578.9744582,227.32901573181152,0.5664825439453125,0.06914138793945312,64.68796730041504,64.75710868835449,66.89286231994629,214.22266960144043
1758587579.0573976,1758587579.1258514,171.18191719055176,0.1583099365234375,0.05602836608886719,65.16671180725098,65.22274017333984,65.8111572265625,147.11785316467285
1758587579.23236,1758587579.4039898,246.74177169799805,0.26035308837890625,0.06890296936035156,65.57774543762207,65.64664840698242,66.30253791809082,194.0310001373291
1758587579.4824152,1758587579.5569139,176.16605758666992,0.07462501525878906,0.06747245788574219,64.62264060974121,64.69011306762695,65.28234481811523,148.9088535308838
1758587579.6587176,1758587579.835242,271.92234992980957,0.19860267639160156,0.06008148193359375,65.45686721801758,65.51694869995117,65.9480094909668,130.1558017730713
1758587579.9345884,1758587580.050879,208.09531211853027,0.16450881958007812,0.05793571472167969,65.52505493164062,65.5829906463623,66.15400314331055,150.5129337310791
1758587580.1553357,1758587580.3295932,250.29730796813965,0.2884864807128906,0.05936622619628906,64.75591659545898,64.81528282165527,65.48905372619629,191.82848930358887
1758587580.4133565,1758587580.5442452,208.44721794128418,0.2720355987548828,0.05888938903808594,65.48166275024414,65.54055213928223,66.20287895202637,190.92893600463867
1758587580.6273577,1758587580.6982102,220.66092491149902,0.18596649169921875,0.06818771362304688,63.147783279418945,63.21597099304199,64.9111270904541,147.71795272827148
1758587580.848163,1758587580.913492,151.76081657409668,0.23674964904785156,0.08320808410644531,63.59553337097168,63.678741455078125,65.35983085632324,129.7605037689209
1758587581.0000706,1758587581.1274505,194.64755058288574,0.12183189392089844,0.0667572021484375,64.71729278564453,64.78404998779297,65.0477409362793,129.31489944458008
1758587581.2023392,1758587581.3418148,209.3515396118164,0.14829635620117188,0.05817413330078125,65.46878814697266,65.52696228027344,65.96684455871582,129.80365753173828
1758587581.4157488,1758587581.4946327,173.30598831176758,0.03790855407714844,0.06747245788574219,64.08309936523438,64.15057182312012,64.47935104370117,87.82768249511719
1758587581.596345,1758587581.7720304,246.23370170593262,0.14972686767578125,0.05650520324707031,65.51933288574219,65.57583808898926,65.9639835357666,129.9424171447754
1758587581.842696,1758587581.9271374,236.70482635498047,0.14829635620117188,0.07104873657226562,61.79690361022949,61.86795234680176,62.335968017578125,87.74781227111816
1758587582.0797396,1758587582.1410375,214.69831466674805,0.034332275390625,0.06937980651855469,62.975406646728516,63.04478645324707,63.384056091308594,149.8551368713379
1758587582.2949703,1758587582.354892,211.2257480621338,0.033855438232421875,0.0667572021484375,64.3608570098877,64.42761421203613,64.75281715393066,151.12018585205078
1758587582.5063233,1758587582.5697303,150.73776245117188,0.23031234741210938,0.06771087646484375,64.70584869384766,64.7735595703125,65.43922424316406,127.73537635803223
1758587582.6593826,1758587582.7849324,196.42376899719238,0.1533031463623047,0.05745887756347656,65.19269943237305,65.25015830993652,65.68026542663574,130.07450103759766
1758587582.8603384,1758587582.999582,210.49737930297852,0.15044212341308594,0.05698204040527344,65.54627418518066,65.60325622558594,66.01333618164062,129.79555130004883
1758587583.0783548,1758587583.2148068,212.27335929870605,0.152587890625,0.05698204040527344,65.22345542907715,65.28043746948242,65.69862365722656,129.7924518585205
1758587583.290776,1758587583.4308348,213.8838768005371,0.07510185241699219,0.06604194641113281,64.8653507232666,64.93139266967773,66.28274917602539,131.2277317047119
1758587583.5047948,1758587583.6482825,228.81293296813965,0.1327991485595703,0.06961822509765625,62.74247169494629,62.812089920043945,63.097476959228516,66.49470329284668
1758587583.7337554,1758587583.8614042,202.31270790100098,0.2770423889160156,0.06794929504394531,64.57638740539551,64.64433670043945,65.43278694152832,192.06905364990234
1758587583.9394028,1758587584.0125012,178.1916618347168,0.1838207244873047,0.06532669067382812,65.17744064331055,65.24276733398438,65.97900390625,148.78416061401367
1758587584.1177282,1758587584.2911425,249.34983253479004,0.26226043701171875,0.06079673767089844,65.23346900939941,65.29426574707031,65.95349311828613,193.85743141174316
1758587584.3703597,1758587584.444491,224.17211532592773,0.17499923706054688,0.06985664367675781,63.17281723022461,63.24267387390137,64.87703323364258,147.69577980041504
1758587584.594638,1758587584.6603127,217.81134605407715,0.03504753112792969,0.07033348083496094,63.4152889251709,63.48562240600586,63.81535530090332,150.3458023071289
1758587584.825371,1758587584.9371185,216.21060371398926,0.16808509826660156,0.057220458984375,65.62161445617676,65.67883491516113,66.25008583068848,151.95274353027344
1758587585.0453632,1758587585.2195542,248.31461906433105,0.2956390380859375,0.06175041198730469,61.65647506713867,61.71822547912598,62.417030334472656,193.0990219116211
1758587585.2978408,1758587585.367859,166.82124137878418,0.1614093780517578,0.057697296142578125,65.2921199798584,65.34981727600098,65.9186840057373,148.0698585510254
1758587585.4953387,1758587585.6466415,225.09503364562988,1.3415813446044922,0.06628036499023438,63.489675521850586,63.55595588684082,65.15908241271973,189.50200080871582
1758587585.720567,1758587585.8626137,228.7442684173584,0.17905235290527344,0.06842613220214844,63.79246711730957,63.86089324951172,64.4063949584961,129.89115715026855
1758587585.9494634,1758587586.0761366,216.05396270751953,0.6239414215087891,0.06413459777832031,65.02151489257812,65.08564949035645,66.04599952697754,192.8083896636963
1758587586.1656637,1758587586.291389,205.00922203063965,0.396728515625,0.05984306335449219,65.01269340515137,65.07253646850586,65.74797630310059,190.5198097229004
1758587586.375353,1758587586.5066166,206.50911331176758,0.2536773681640625,0.059604644775390625,65.09518623352051,65.1547908782959,65.81687927246094,189.66388702392578
1758587586.5903704,1758587586.7209983,220.31903266906738,0.6062984466552734,0.06604194641113281,65.31143188476562,65.37747383117676,67.36516952514648,191.00117683410645
1758587586.810837,1758587586.9372008,220.75581550598145,0.36787986755371094,0.06127357482910156,64.73684310913086,64.79811668395996,65.3836727142334,190.71483612060547
1758587587.0403185,1758587587.215276,251.4209747314453,0.2601146697998047,0.0591278076171875,65.31596183776855,65.37508964538574,66.02668762207031,193.1157112121582
1758587587.2958312,1758587587.3666902,166.86177253723145,0.16188621520996094,0.07939338684082031,64.90206718444824,64.98146057128906,65.55771827697754,146.942138671875
1758587587.4703574,1758587587.6454444,245.35465240478516,0.3821849822998047,0.0629425048828125,65.16909599304199,65.2320384979248,65.87624549865723,193.2082176208496
1758587587.717589,1758587587.7990642,180.00030517578125,0.04029273986816406,0.06842613220214844,63.35949897766113,63.42792510986328,63.756465911865234,87.51296997070312
1758587587.8994913,1758587588.075554,248.91018867492676,0.15354156494140625,0.05888938903808594,65.63782691955566,65.69671630859375,66.10560417175293,130.645751953125
1758587588.148524,1758587588.2289083,172.91760444641113,0.03743171691894531,0.06842613220214844,64.13483619689941,64.20326232910156,64.54014778137207,88.05036544799805
1758587588.3215854,1758587588.442939,219.34223175048828,0.03790855407714844,0.06842613220214844,64.67962265014648,64.74804878234863,65.12260437011719,88.13714981079102
1758587588.541058,1758587588.7203293,249.61304664611816,0.1499652862548828,0.05888938903808594,65.61756134033203,65.67645072937012,66.07627868652344,129.90498542785645
1758587588.7964606,1758587588.9358442,213.16266059875488,0.1544952392578125,0.07867813110351562,65.49668312072754,65.57536125183105,65.99140167236328,129.80294227600098
1758587589.0143573,1758587589.1507154,206.2065601348877,0.15592575073242188,0.05817413330078125,65.17195701599121,65.23013114929199,65.65475463867188,129.4090747833252
1758587589.220678,1758587589.3042214,155.76672554016113,0.04482269287109375,0.06985664367675781,56.37383460998535,56.44369125366211,56.7781925201416,71.33245468139648
1758587589.3803344,1758587589.5011842,269.9158191680908,0.1399517059326172,0.07104873657226562,62.76535987854004,62.836408615112305,63.29035758972168,88.13977241516113
1758587589.6504078,1758587589.7157745,151.95894241333008,0.23651123046875,0.07152557373046875,63.65513801574707,63.72666358947754,64.40854072570801,128.73601913452148
1758587589.804385,1758587589.929724,192.27886199951172,0.15425682067871094,0.05841255187988281,61.66696548461914,61.72537803649902,62.15357780456543,125.99420547485352
1758587590.0053716,1758587590.1408668,206.21633529663086,0.15044212341308594,0.056743621826171875,65.19579887390137,65.25254249572754,65.66023826599121,129.69374656677246
1758587590.2117023,1758587590.29392,169.63529586791992,0.03910064697265625,0.06937980651855469,63.696861267089844,63.7662410736084,64.09168243408203,87.921142578125
1758587590.3814864,1758587590.5082183,214.65587615966797,0.6091594696044922,0.07009506225585938,64.13459777832031,64.20469284057617,66.44010543823242,192.4142837524414
1758587590.5963051,1758587590.722831,196.75540924072266,1.3785362243652344,0.07510185241699219,63.784122467041016,63.85922431945801,65.49668312072754,190.86980819702148
1758587590.7963557,1758587590.8775082,168.73621940612793,0.12922286987304688,0.06985664367675781,62.04652786254883,62.116384506225586,62.679290771484375,87.86487579345703
1758587590.9652379,1758587591.0903025,215.16084671020508,0.04482269287109375,0.06651878356933594,64.73469734191895,64.80121612548828,65.14763832092285,150.47121047973633
1758587591.18754,1758587591.368344,257.09033012390137,0.1513957977294922,0.05793571472167969,65.63329696655273,65.69123268127441,66.0851001739502,130.27286529541016
1758587591.4483595,1758587591.5841691,229.26592826843262,0.18215179443359375,0.05793571472167969,65.08421897888184,65.14215469360352,65.5663013458252,130.0640106201172
1758587591.6778276,1758587591.800857,273.24676513671875,0.17547607421875,0.06961822509765625,63.471317291259766,63.54093551635742,64.53227996826172,149.98388290405273
1758587591.9515228,1758587592.0155559,151.21912956237793,0.5252361297607422,0.07200241088867188,64.56494331359863,64.6369457244873,66.70832633972168,129.87160682678223
1758587592.1063545,1758587592.232142,213.0584716796875,0.05459785461425781,0.07963180541992188,63.00663948059082,63.08627128601074,63.26436996459961,128.54862213134766
1758587592.3238673,1758587592.4464936,212.57972717285156,0.04029273986816406,0.07009506225585938,63.30752372741699,63.37761878967285,63.71927261352539,87.85200119018555
1758587592.5365648,1758587592.6610682,220.03579139709473,0.03838539123535156,0.06914138793945312,63.69161605834961,63.76075744628906,64.08810615539551,87.6774787902832
1758587592.760364,1758587592.9387913,248.33178520202637,0.1513957977294922,0.055789947509765625,65.23323059082031,65.28902053833008,65.69790840148926,130.1443576812744
1758587593.0173604,1758587593.0921595,163.08236122131348,0.038623809814453125,0.07700920104980469,63.79055976867676,63.86756896972656,64.27001953125,87.70108222961426
1758587593.184747,1758587593.3075716,212.65482902526855,0.03719329833984375,0.06866455078125,64.37087059020996,64.43953514099121,64.77808952331543,88.12856674194336
1758587593.4044127,1758587593.585401,275.97594261169434,0.1697540283203125,0.05650520324707031,65.28615951538086,65.34266471862793,65.74058532714844,129.64916229248047
1758587593.6846554,1758587593.8004742,211.93909645080566,0.17309188842773438,0.056743621826171875,65.31620025634766,65.37294387817383,65.7954216003418,130.19299507141113
1758587593.9003732,1758587594.0156379,211.0610008239746,0.1628398895263672,0.05841255187988281,64.9728775024414,65.03129005432129,65.60730934143066,149.43408966064453
1758587594.1153593,1758587594.230656,221.25840187072754,0.17952919006347656,0.05745887756347656,65.34790992736816,65.40536880493164,66.01333618164062,151.60822868347168
1758587594.3367662,1758587594.5089257,247.96652793884277,0.26726722717285156,0.06079673767089844,65.69027900695801,65.7510757446289,66.44725799560547,193.7696933746338
1758587594.5874097,1758587594.6611419,144.22178268432617,0.15783309936523438,0.05841255187988281,65.15049934387207,65.20891189575195,65.62089920043945,127.49624252319336
1758587594.7363412,1758587594.8763974,211.34686470031738,0.15211105346679688,0.05555152893066406,65.16385078430176,65.21940231323242,65.6273365020752,129.5299530029297
1758587594.9494715,1758587595.0295875,170.3636646270752,0.03838539123535156,0.07033348083496094,63.82870674133301,63.89904022216797,64.24260139465332,87.64362335205078
1758587595.123351,1758587595.245646,270.28632164001465,0.13494491577148438,0.06866455078125,61.7983341217041,61.86699867248535,62.30950355529785,87.33916282653809
1758587595.3963876,1758587595.4600964,216.0053253173828,0.034809112548828125,0.06961822509765625,62.67499923706055,62.7446174621582,63.09652328491211,149.38807487487793
1758587595.612501,1758587595.7998037,256.11186027526855,0.2536773681640625,0.0591278076171875,65.15097618103027,65.21010398864746,65.86122512817383,193.44496726989746
1758587595.8847723,1758587596.0152092,205.9319019317627,0.217437744140625,0.05745887756347656,65.47021865844727,65.52767753601074,66.15972518920898,190.2012825012207
1758587596.0963678,1758587596.1670074,231.25910758972168,0.12683868408203125,0.0553131103515625,65.80781936645508,65.86313247680664,66.27845764160156,148.43320846557617
1758587596.340349,1758587596.5103223,246.42491340637207,0.2532005310058594,0.060558319091796875,65.63186645507812,65.69242477416992,66.34283065795898,193.6790943145752
1758587596.5884073,1758587596.6626465,168.02334785461426,0.15544891357421875,0.05626678466796875,64.82982635498047,64.88609313964844,65.43660163879395,147.43614196777344
1758587596.7613373,1758587596.8777752,210.28637886047363,0.15473365783691406,0.05888938903808594,65.4144287109375,65.47331809997559,65.99760055541992,151.96800231933594
1758587596.983335,1758587597.1572757,269.3159580230713,1.4004707336425781,0.06651878356933594,64.00108337402344,64.06760215759277,65.70744514465332,193.73393058776855
1758587597.2565784,1758587597.3721046,208.1003189086914,0.17523765563964844,0.05745887756347656,65.44733047485352,65.50478935241699,66.09725952148438,150.16865730285645
1758587597.4773366,1758587597.650991,257.3199272155762,0.2624988555908203,0.06890296936035156,65.62018394470215,65.6890869140625,66.35618209838867,193.02940368652344
1758587597.7348056,1758587597.8670535,206.82215690612793,0.27489662170410156,0.06079673767089844,65.14310836791992,65.20390510559082,65.86670875549316,189.67366218566895
1758587597.9424717,1758587598.018556,170.14527320861816,0.16069412231445312,0.057220458984375,65.65356254577637,65.71078300476074,66.2698745727539,148.8027572631836
1758587598.1213357,1758587598.2980816,272.29905128479004,1.4121532440185547,0.06747245788574219,64.19825553894043,64.26572799682617,65.9184455871582,192.97289848327637
1758587598.3973382,1758587598.515672,271.07930183410645,0.1728534698486328,0.06985664367675781,63.173770904541016,63.24362754821777,64.92805480957031,149.89113807678223
1758587598.6773417,1758587598.7924397,205.4896354675293,0.16760826110839844,0.05888938903808594,65.26398658752441,65.3228759765625,65.72151184082031,151.05223655700684
1758587598.8903415,1758587599.0069933,208.2808017730713,0.16045570373535156,0.05984306335449219,65.07635116577148,65.13619422912598,65.72127342224121,150.83670616149902
1758587599.114337,1758587599.285444,241.47534370422363,0.2644062042236328,0.05984306335449219,65.52791595458984,65.58775901794434,66.24197959899902,193.23325157165527
1758587599.3620706,1758587599.437363,181.51021003723145,0.16045570373535156,0.05817413330078125,64.99218940734863,65.05036354064941,65.60969352722168,148.0259895324707
1758587599.543718,1758587599.7159286,243.99185180664062,0.2627372741699219,0.05984306335449219,64.91994857788086,64.97979164123535,65.65356254577637,192.0158863067627
1758587599.7923765,1758587599.8669171,177.20651626586914,0.16069412231445312,0.056743621826171875,65.0177001953125,65.07444381713867,65.66810607910156,147.92346954345703
1758587599.9734104,1758587600.1455524,242.46954917907715,0.26154518127441406,0.06008148193359375,65.63377380371094,65.69385528564453,66.35212898254395,192.99793243408203
1758587600.223382,1758587600.2976778,179.20875549316406,0.16069412231445312,0.05626678466796875,65.50931930541992,65.56558609008789,66.12682342529297,148.0264663696289
1758587600.4063606,1758587600.5771873,245.47147750854492,0.2751350402832031,0.06103515625,65.6733512878418,65.7343864440918,66.40267372131348,195.21236419677734
1758587600.6573792,1758587600.7311804,223.48785400390625,0.3864765167236328,0.06890296936035156,63.31229209899902,63.381195068359375,65.29760360717773,148.26226234436035
1758587600.8815026,1758587600.94693,218.13225746154785,0.049114227294921875,0.07152557373046875,62.937259674072266,63.008785247802734,63.36069107055664,150.0561237335205
1758587601.1163378,1758587601.286869,241.51182174682617,0.25200843811035156,0.060558319091796875,65.2310848236084,65.2916431427002,65.95182418823242,193.0243968963623
1758587601.369374,1758587601.5019698,208.44793319702148,0.2498626708984375,0.06866455078125,65.35053253173828,65.41919708251953,66.06411933898926,190.70744514465332
1758587601.585356,1758587601.7168732,206.30788803100586,0.2524852752685547,0.0591278076171875,65.57345390319824,65.63258171081543,66.29204750061035,190.10400772094727
1758587601.7954054,1758587601.8692758,171.51904106140137,0.3230571746826172,0.06747245788574219,64.81432914733887,64.88180160522461,65.92607498168945,148.49162101745605
1758587601.9703317,1758587602.084359,206.53319358825684,0.16307830810546875,0.058650970458984375,64.95189666748047,65.01054763793945,65.57440757751465,150.3746509552002
1758587602.1843255,1758587602.2370653,204.3132781982422,0.03528594970703125,0.06723403930664062,64.52155113220215,64.58878517150879,64.91756439208984,151.38721466064453
1758587602.3906848,1758587602.4533658,216.76349639892578,0.03790855407714844,0.06914138793945312,63.851356506347656,63.92049789428711,64.24903869628906,151.26419067382812
1758587602.6075568,1758587602.6680865,215.9106731414795,0.03528594970703125,0.06699562072753906,64.34464454650879,64.41164016723633,64.73708152770996,151.4136791229248
1758587602.8236132,1758587602.8836727,211.3204002380371,0.03743171691894531,0.06818771362304688,64.03470039367676,64.1028881072998,64.43953514099121,151.29494667053223
1758587603.0352767,1758587603.0983107,213.58942985534668,0.13113021850585938,0.06890296936035156,64.47291374206543,64.54181671142578,64.81528282165527,127.03442573547363
1758587603.2490184,1758587603.314699,151.63779258728027,0.28634071350097656,0.06985664367675781,63.124895095825195,63.19475173950195,64.96548652648926,129.65750694274902
1758587603.400806,1758587603.5297132,215.9404754638672,0.18262863159179688,0.06842613220214844,63.58146667480469,63.649892807006836,65.18721580505371,131.19912147521973
1758587603.6223454,1758587603.7450702,213.44614028930664,0.03743171691894531,0.07009506225585938,63.34424018859863,63.41433525085449,63.739776611328125,87.72802352905273
1758587603.835912,1758587603.9595313,214.8756980895996,0.03910064697265625,0.06842613220214844,63.76934051513672,63.83776664733887,64.1636848449707,88.28186988830566
1758587604.0509045,1758587604.1738622,214.49017524719238,0.039577484130859375,0.06747245788574219,63.80105018615723,63.86852264404297,64.19253349304199,87.70370483398438
1758587604.2693245,1758587604.3895648,207.72552490234375,0.04124641418457031,0.06866455078125,63.719749450683594,63.788414001464844,64.11576271057129,88.29998970031738
1758587604.477157,1758587604.6033068,215.03496170043945,0.6453990936279297,0.06866455078125,64.61262702941895,64.6812915802002,65.79113006591797,190.9327507019043
1758587604.692364,1758587604.8185053,201.68113708496094,0.2617835998535156,0.06079673767089844,65.10305404663086,65.16385078430176,65.81711769104004,192.14177131652832
1758587604.8941662,1758587604.971952,227.4477481842041,0.18215179443359375,0.06842613220214844,63.48776817321777,63.55619430541992,64.23473358154297,148.39696884155273
1758587605.1222248,1758587605.1878457,214.32185173034668,0.1785755157470703,0.07081031799316406,62.3629093170166,62.433719635009766,62.83283233642578,87.77570724487305
1758587605.3366926,1758587605.4009314,133.99410247802734,0.018358230590820312,0.06818771362304688,64.26239013671875,64.3305778503418,64.49222564697266,66.07770919799805
1758587605.470828,1758587605.616762,214.84947204589844,0.036716461181640625,0.06961822509765625,63.60435485839844,63.673973083496094,63.83013725280762,65.99974632263184
1758587605.6893613,1758587605.831317,210.0358009338379,0.034809112548828125,0.06842613220214844,63.748836517333984,63.81726264953613,63.98129463195801,65.92893600463867
1758587605.8995445,1758587606.0478485,233.52742195129395,0.1316070556640625,0.07009506225585938,62.49880790710449,62.56890296936035,62.84666061401367,66.48087501525879
1758587606.1363971,1758587606.2632859,275.46048164367676,0.1392364501953125,0.07009506225585938,62.294960021972656,62.365055084228516,62.810659408569336,87.95690536499023
1758587606.41201,1758587606.4777453,151.9794464111328,0.23603439331054688,0.07009506225585938,63.46392631530762,63.53402137756348,65.24515151977539,130.05948066711426
1758587606.5641387,1758587606.6930537,215.22259712219238,0.18477439880371094,0.0782012939453125,63.370466232299805,63.44866752624512,64.98408317565918,131.02293014526367
1758587606.785348,1758587606.907713,214.0648365020752,0.0362396240234375,0.06890296936035156,64.64409828186035,64.7130012512207,65.04106521606445,88.07611465454102
1758587607.0073383,1758587607.1855662,252.2742748260498,0.15091896057128906,0.057220458984375,64.99481201171875,65.05203247070312,65.45543670654297,129.2867660522461
1758587607.2624092,1758587607.4004538,210.98756790161133,0.15592575073242188,0.05793571472167969,65.70601463317871,65.76395034790039,66.17140769958496,130.45859336853027
1758587607.4735153,1758587607.553758,168.92457008361816,0.037670135498046875,0.07009506225585938,63.66276741027832,63.73286247253418,64.05925750732422,87.91756629943848
1758587607.6463342,1758587607.769148,219.43354606628418,0.03886222839355469,0.07843971252441406,63.87495994567871,63.953399658203125,64.29719924926758,87.95881271362305
1758587607.865908,1758587608.0462897,250.66280364990234,0.1494884490966797,0.06031990051269531,65.45042991638184,65.51074981689453,65.91415405273438,130.24067878723145
1758587608.1166894,1758587608.1998918,170.68743705749512,0.03695487976074219,0.06771087646484375,63.92717361450195,63.9948844909668,64.32652473449707,87.94927597045898
1758587608.2875252,1758587608.413847,214.97082710266113,0.6613731384277344,0.07033348083496094,63.99106979370117,64.06140327453613,66.37454032897949,191.8642520904541
1758587608.5026517,1758587608.6281362,220.96872329711914,0.3941059112548828,0.06031990051269531,65.39154052734375,65.45186042785645,66.0398006439209,190.4163360595703
1758587608.7323372,1758587608.9069657,250.07009506225586,0.15783309936523438,0.057220458984375,65.2778148651123,65.33503532409668,65.77110290527344,130.4306983947754
1758587608.982562,1758587609.1238294,214.03169631958008,0.32830238342285156,0.06961822509765625,63.17448616027832,63.24410438537598,64.19229507446289,129.67872619628906
1758587609.2004054,1758587609.3365316,205.3995132446289,0.15044212341308594,0.05626678466796875,65.21368026733398,65.26994705200195,65.66786766052246,129.47630882263184
1758587609.4125187,1758587609.5511167,215.31105041503906,0.1647472381591797,0.057697296142578125,65.39726257324219,65.45495986938477,65.88006019592285,129.6529769897461
1758587609.6314025,1758587609.766412,209.98215675354004,0.15664100646972656,0.0591278076171875,65.22512435913086,65.28425216674805,65.704345703125,129.67824935913086
1758587609.841529,1758587609.981848,211.1349105834961,0.15544891357421875,0.05793571472167969,65.55438041687012,65.6123161315918,66.03002548217773,130.2323341369629
1758587610.0603602,1758587610.1966555,212.37993240356445,0.15044212341308594,0.05745887756347656,65.42849540710449,65.48595428466797,65.88578224182129,129.36043739318848
1758587610.2754202,1758587610.3912842,186.39516830444336,0.15163421630859375,0.05817413330078125,65.62924385070801,65.68741798400879,66.10918045043945,130.1426887512207
1758587610.4675398,1758587610.6067238,215.12961387634277,0.1506805419921875,0.05817413330078125,65.86766242980957,65.92583656311035,66.32828712463379,130.11693954467773
1758587610.6828175,1758587610.82455,224.55716133117676,0.18477439880371094,0.06866455078125,60.32395362854004,60.39261817932129,61.00106239318848,126.92046165466309
1758587610.9081452,1758587611.0369906,222.7306365966797,0.1773834228515625,0.06937980651855469,62.99734115600586,63.066720962524414,64.86892700195312,150.44045448303223
1758587611.1310241,1758587611.2514284,214.37406539916992,0.05888938903808594,0.10991096496582031,64.16940689086914,64.27931785583496,64.63384628295898,150.05254745483398
1758587611.3455222,1758587611.466805,209.9158763885498,0.03814697265625,0.06914138793945312,63.561201095581055,63.63034248352051,63.95459175109863,87.6924991607666
1758587611.5593362,1758587611.6805425,213.06085586547852,0.03719329833984375,0.06842613220214844,65.0937557220459,65.16218185424805,65.48428535461426,88.20939064025879
1758587611.7773395,1758587611.9584177,250.2896785736084,0.1552104949951172,0.05936622619628906,64.76521492004395,64.82458114624023,65.23251533508301,129.3160915374756
1758587612.0341535,1758587612.1727164,209.57064628601074,0.15163421630859375,0.05698204040527344,65.68050384521484,65.73748588562012,66.14804267883301,130.14912605285645
1758587612.2483404,1758587612.3877647,231.31704330444336,0.1735687255859375,0.05817413330078125,65.42849540710449,65.48666954040527,65.9031867980957,129.66465950012207
1758587612.483632,1758587612.6054947,270.7171440124512,0.18787384033203125,0.07462501525878906,62.88933753967285,62.96396255493164,64.70537185668945,131.08468055725098
1758587612.754549,1758587612.8198135,150.94995498657227,0.24008750915527344,0.07176399230957031,62.81590461730957,62.88766860961914,63.62104415893555,127.59995460510254
1758587612.9093966,1758587613.0327644,194.49448585510254,0.1552104949951172,0.05793571472167969,65.35530090332031,65.41323661804199,65.86003303527832,130.03778457641602
1758587613.1123648,1758587613.2487075,208.2524299621582,0.15592575073242188,0.05841255187988281,65.15026092529297,65.20867347717285,65.63544273376465,129.88948822021484
1758587613.3253837,1758587613.4639368,212.27002143859863,0.17714500427246094,0.059604644775390625,65.12451171875,65.18411636352539,65.62113761901855,129.61459159851074
1758587613.539866,1758587613.6817026,212.85533905029297,0.1723766326904297,0.07009506225585938,62.90149688720703,62.97159194946289,64.61715698242188,131.2112808227539
1758587613.752868,1758587613.8963668,229.59637641906738,0.17690658569335938,0.06890296936035156,63.51900100708008,63.58790397644043,65.10353088378906,194.4437026977539
1758587613.9826176,1758587614.110605,202.22902297973633,0.2715587615966797,0.0667572021484375,64.49198722839355,64.55874443054199,65.60778617858887,193.76587867736816
1758587614.1933548,1758587614.3249214,227.26106643676758,1.4188289642333984,0.06747245788574219,64.35608863830566,64.4235610961914,66.0853385925293,190.20485877990723
1758587614.4246361,1758587614.5403974,207.71503448486328,0.18215179443359375,0.0591278076171875,65.20986557006836,65.26899337768555,65.85574150085449,149.76787567138672
1758587614.641354,1758587614.7561202,211.26723289489746,0.1704692840576172,0.05817413330078125,65.20271301269531,65.2608871459961,65.85979461669922,152.07719802856445
1758587614.8599408,1758587615.0350382,267.69566535949707,1.4257431030273438,0.06699562072753906,64.10527229309082,64.17226791381836,65.83857536315918,193.2215690612793
1758587615.1316671,1758587615.2511237,207.44752883911133,0.08511543273925781,0.07867813110351562,64.2094612121582,64.28813934326172,64.79907035827637,129.27603721618652
1758587615.342445,1758587615.4666345,247.1914291381836,0.07677078247070312,0.06771087646484375,70.01328468322754,70.08099555969238,70.4643726348877,157.37199783325195
1758587615.589745,1758587615.686997,184.70358848571777,0.03790855407714844,0.07033348083496094,63.956260681152344,64.0265941619873,64.36657905578613,87.74805068969727
1758587615.7746015,1758587615.901164,215.76714515686035,0.6716251373291016,0.06890296936035156,64.74423408508301,64.81313705444336,65.97518920898438,191.51759147644043
1758587615.990523,1758587616.1153438,195.78981399536133,0.2808570861816406,0.06008148193359375,65.20414352416992,65.26422500610352,65.94228744506836,189.650297164917
1758587616.1943753,1758587616.2664607,168.23768615722656,0.16021728515625,0.05793571472167969,64.99218940734863,65.05012512207031,65.62447547912598,148.12541007995605
1758587616.3703363,1758587616.5458024,271.2843418121338,1.4083385467529297,0.07462501525878906,64.14961814880371,64.2242431640625,65.87553024291992,193.52030754089355
1758587616.6453385,1758587616.7607174,211.0753059387207,0.1609325408935547,0.05793571472167969,65.0489330291748,65.10686874389648,65.67502021789551,149.49941635131836
1758587616.860356,1758587616.9753392,214.45202827453613,0.16236305236816406,0.057697296142578125,65.64450263977051,65.70219993591309,66.27488136291504,152.00304985046387
1758587617.0783498,1758587617.1915429,214.25366401672363,0.1621246337890625,0.05984306335449219,65.37222862243652,65.43207168579102,66.0102367401123,152.04358100891113
1758587617.2973335,1758587617.4707341,249.5443820953369,0.2639293670654297,0.06079673767089844,65.1252269744873,65.1860237121582,65.84954261779785,193.39394569396973
1758587617.5553567,1758587617.6858351,205.2445411682129,0.26345252990722656,0.06031990051269531,65.07134437561035,65.13166427612305,65.79160690307617,189.4514560699463
1758587617.7644255,1758587617.8370693,178.15136909484863,0.1575946807861328,0.06842613220214844,65.36436080932617,65.43278694152832,65.99211692810059,147.73321151733398
1758587617.9427211,1758587618.1160562,263.6868953704834,0.13971328735351562,0.05626678466796875,65.21391868591309,65.27018547058105,65.71102142333984,213.51361274719238
1758587618.2066355,1758587618.2697966,218.75405311584473,0.4963874816894531,0.06985664367675781,62.08324432373047,62.15310096740723,148.57196807861328,151.22342109680176
1758587618.4256291,1758587618.4840643,212.81671524047852,0.034809112548828125,0.06937980651855469,63.87662887573242,63.94600868225098,64.28742408752441,150.97975730895996
1758587618.6385539,1758587618.6987703,213.89007568359375,0.03409385681152344,0.06723403930664062,64.47935104370117,64.54658508300781,64.87512588500977,150.9714126586914
1758587618.8525922,1758587618.9145982,212.6002311706543,0.034809112548828125,0.07009506225585938,63.48896026611328,63.55905532836914,63.89451026916504,150.6025791168213
1758587619.0653594,1758587619.1283903,150.22969245910645,0.2334117889404297,0.06818771362304688,64.97502326965332,65.04321098327637,66.71380996704102,128.83424758911133
1758587619.2173805,1758587619.3440359,192.5511360168457,0.06318092346191406,0.06747245788574219,64.13769721984863,64.20516967773438,64.36562538146973,128.98588180541992
1758587619.4100788,1758587619.5586283,225.92973709106445,0.5700588226318359,0.07605552673339844,64.94402885437012,65.02008438110352,67.0623779296875,214.78796005249023
1758587619.6375654,1758587619.7739336,211.0595703125,0.26106834411621094,0.06008148193359375,65.35506248474121,65.4151439666748,66.06578826904297,187.72578239440918
1758587619.8528302,1758587619.9257677,171.5259552001953,0.15878677368164062,0.057697296142578125,65.5665397644043,65.62423706054688,66.18809700012207,148.84209632873535
1758587620.0303311,1758587620.2048924,248.33178520202637,0.29277801513671875,0.058650970458984375,65.06633758544922,65.1249885559082,65.81687927246094,192.88134574890137
1758587620.2824056,1758587620.3560705,171.28896713256836,0.16069412231445312,0.06866455078125,64.78071212768555,64.8493766784668,65.43374061584473,147.31192588806152
1758587620.460333,1758587620.633893,249.44281578063965,0.2620220184326172,0.05936622619628906,65.03534317016602,65.0947093963623,65.7498836517334,192.9464340209961
1758587620.7183578,1758587620.8487275,206.35747909545898,0.2601146697998047,0.06008148193359375,65.56153297424316,65.62161445617676,66.26200675964355,189.67819213867188
1758587620.9303987,1758587621.0009394,164.21055793762207,0.16021728515625,0.05745887756347656,64.72277641296387,64.78023529052734,65.34576416015625,147.56298065185547
1758587621.1033368,1758587621.2790134,268.27168464660645,1.3773441314697266,0.06699562072753906,64.32509422302246,64.39208984375,66.00666046142578,192.75617599487305
1758587621.3756375,1758587621.4957566,269.78468894958496,0.17952919006347656,0.07033348083496094,63.55142593383789,63.62175941467285,65.28925895690918,150.1777172088623
1758587621.6460414,1758587621.7115383,217.40317344665527,0.06341934204101562,0.07033348083496094,62.63375282287598,62.70408630371094,63.0640983581543,149.7802734375
1758587621.8677018,1758587621.9256768,211.745023727417,0.035762786865234375,0.07009506225585938,63.8883113861084,63.95840644836426,64.28027153015137,150.96402168273926
1758587622.079596,1758587622.1407814,215.8520221710205,0.03504753112792969,0.06937980651855469,64.33343887329102,64.40281867980957,64.73922729492188,150.80857276916504
1758587622.2993586,1758587622.355601,211.03739738464355,0.035762786865234375,0.06866455078125,64.44048881530762,64.50915336608887,64.85199928283691,151.23796463012695
1758587622.5105038,1758587622.57112,213.94085884094238,0.0362396240234375,0.06771087646484375,64.38803672790527,64.45574760437012,64.78738784790039,151.26681327819824
1758587622.7283676,1758587622.7871878,213.08112144470215,0.0362396240234375,0.07939338684082031,63.490867614746094,63.570261001586914,63.901662826538086,151.03626251220703
1758587622.9453604,1758587623.0020185,209.0928554534912,0.03695487976074219,0.06818771362304688,64.11933898925781,64.18752670288086,64.52584266662598,151.23343467712402
1758587623.1587317,1758587623.216706,212.6603126525879,0.03457069396972656,0.06961822509765625,64.1336441040039,64.20326232910156,64.52536582946777,151.31139755249023
1758587623.3753643,1758587623.4323316,208.59360694885254,0.03528594970703125,0.07700920104980469,64.42618370056152,64.50319290161133,64.8350715637207,151.4744758605957
1758587623.5840604,1758587623.647207,150.7103443145752,0.24437904357910156,0.06651878356933594,64.47243690490723,64.53895568847656,66.24579429626465,128.43990325927734
1758587623.7349193,1758587623.8635545,214.77985382080078,0.19168853759765625,0.06866455078125,63.59410285949707,63.66276741027832,65.1860237121582,131.00314140319824
1758587623.9502409,1758587624.0777488,215.58642387390137,0.0400543212890625,0.06794929504394531,64.10837173461914,64.17632102966309,64.52822685241699,87.7387523651123
1758587624.1683478,1758587624.2945435,275.0270366668701,0.13756752014160156,0.07033348083496094,62.68572807312012,62.75606155395508,63.20500373840332,87.91279792785645
1758587624.4439945,1758587624.508952,214.20812606811523,0.12731552124023438,0.10418891906738281,62.76559829711914,62.86978721618652,63.30156326293945,87.7993106842041
1758587624.659032,1758587624.7246847,215.72422981262207,0.04601478576660156,0.06961822509765625,63.5528564453125,63.622474670410156,63.97891044616699,149.90615844726562
1758587624.8773947,1758587624.9387589,215.99817276000977,0.03695487976074219,0.06866455078125,64.22996520996094,64.29862976074219,64.64076042175293,151.14402770996094
1758587625.0973334,1758587625.1546767,211.0593318939209,0.03528594970703125,0.06723403930664062,64.17274475097656,64.2399787902832,64.56565856933594,151.2753963470459
1758587625.3125248,1758587625.3700416,211.92121505737305,0.034809112548828125,0.06985664367675781,64.12982940673828,64.19968605041504,64.52679634094238,150.99787712097168
1758587625.524553,1758587625.5855367,212.19396591186523,0.03695487976074219,0.07033348083496094,63.76147270202637,63.83180618286133,64.15677070617676,151.46923065185547
1758587625.7403553,1758587625.8007061,212.02635765075684,0.03600120544433594,0.06866455078125,64.2695426940918,64.33820724487305,64.6820068359375,151.43513679504395
1758587625.9553893,1758587626.0172775,216.05515480041504,0.03552436828613281,0.06771087646484375,63.86256217956543,63.93027305603027,64.27264213562012,151.53741836547852
1758587626.1715918,1758587626.23274,213.8535976409912,0.03600120544433594,0.06961822509765625,63.7362003326416,63.80581855773926,64.1326904296875,151.05223655700684
1758587626.3855946,1758587626.4477296,213.4990692138672,0.03695487976074219,0.06771087646484375,64.3620491027832,64.42975997924805,64.78643417358398,151.30305290222168
1758587626.5991974,1758587626.6624272,150.80642700195312,0.2338886260986328,0.06818771362304688,64.49127197265625,64.5594596862793,66.32351875305176,128.61108779907227
1758587626.7533824,1758587626.8794734,194.2448616027832,0.1270771026611328,0.06937980651855469,63.36665153503418,63.436031341552734,63.76194953918457,129.54020500183105
1758587626.947771,1758587627.0949192,232.78212547302246,0.1347064971923828,0.0705718994140625,63.20071220397949,63.271284103393555,63.553571701049805,130.26952743530273
1758587627.1807024,1758587627.3087604,216.19749069213867,0.6604194641113281,0.0705718994140625,63.72833251953125,63.79890441894531,64.94569778442383,191.97654724121094
1758587627.397046,1758587627.5220625,207.23295211791992,0.27298927307128906,0.0782012939453125,65.6285285949707,65.70672988891602,66.44606590270996,191.63060188293457
1758587627.6133547,1758587627.7369335,214.26033973693848,0.3819465637207031,0.06413459777832031,64.98861312866211,65.05274772644043,65.61136245727539,188.22932243347168
1758587627.8379736,1758587627.9522963,217.6191806793213,0.16307830810546875,0.0591278076171875,65.27304649353027,65.33217430114746,65.94395637512207,151.8728733062744
1758587628.0593605,1758587628.2304187,246.19221687316895,0.2624988555908203,0.05984306335449219,65.3681755065918,65.42801856994629,66.08891487121582,192.5950050354004
1758587628.3084226,1758587628.3819382,170.2406406402588,0.164031982421875,0.05745887756347656,65.33217430114746,65.38963317871094,65.97185134887695,148.1637954711914
1758587628.486336,1758587628.6603496,244.3716526031494,1.3756752014160156,0.06866455078125,64.26215171813965,64.3308162689209,65.97065925598145,192.9779052734375
1758587628.7347538,1758587628.876076,211.91787719726562,0.15687942504882812,0.07081031799316406,65.50741195678711,65.57822227478027,66.00713729858398,129.66394424438477
1758587628.952466,1758587629.0917768,235.16225814819336,0.17404556274414062,0.057697296142578125,65.3848648071289,65.44256210327148,65.85884094238281,130.3415298461914
1758587629.1913366,1758587629.3090506,268.32079887390137,0.17595291137695312,0.07748603820800781,63.60769271850586,63.68517875671387,64.1937255859375,129.62889671325684
1758587629.4634452,1758587629.523964,216.99953079223633,0.03504753112792969,0.06747245788574219,64.15772438049316,64.2251968383789,64.56351280212402,151.33905410766602
1758587629.6805968,1758587629.7414446,273.867130279541,0.1285076141357422,0.0705718994140625,61.84554100036621,61.91611289978027,62.30640411376953,150.6338119506836
1758587629.9545772,1758587630.0185602,218.00613403320312,0.2562999725341797,0.06937980651855469,63.2021427154541,63.271522521972656,148.91624450683594,151.13306045532227
1758587630.1728425,1758587630.232829,216.5541648864746,0.03504753112792969,0.06914138793945312,63.90380859375,63.97294998168945,64.30625915527344,151.5674591064453
1758587630.389572,1758587630.4481025,210.0520133972168,0.03528594970703125,0.06961822509765625,64.4233226776123,64.49294090270996,64.82577323913574,151.0303020477295
1758587630.5997324,1758587630.6629953,150.7589817047119,0.23484230041503906,0.0762939453125,64.55659866333008,64.63289260864258,65.31810760498047,127.4409294128418
1758587630.7523863,1758587630.8767955,195.1923370361328,0.17547607421875,0.05841255187988281,65.56153297424316,65.61994552612305,66.06101989746094,129.78029251098633
1758587630.9477015,1758587631.0296686,175.9343147277832,0.03838539123535156,0.0705718994140625,63.71903419494629,63.78960609436035,64.12363052368164,87.69035339355469
1758587631.127335,1758587631.2265065,184.39674377441406,0.0400543212890625,0.07104873657226562,61.337947845458984,61.40899658203125,61.82575225830078,85.60061454772949
1758587631.3143458,1758587631.4393456,221.1754322052002,0.03886222839355469,0.06914138793945312,63.536643981933594,63.60578536987305,63.95316123962402,87.53156661987305
1758587631.5356486,1758587631.7167752,251.7848014831543,0.1723766326904297,0.06031990051269531,65.32025337219238,65.38057327270508,65.81282615661621,130.25307655334473
1758587631.7923725,1758587631.9287765,211.21907234191895,0.17547607421875,0.06031990051269531,64.81814384460449,64.87846374511719,65.31667709350586,129.44388389587402
1758587632.0073762,1758587632.143711,211.2448215484619,0.15544891357421875,0.05888938903808594,65.28115272521973,65.34004211425781,65.7646656036377,129.96912002563477
1758587632.2187681,1758587632.3603306,213.90748023986816,0.07987022399902344,0.08177757263183594,64.3613338470459,64.44311141967773,65.83905220031738,131.04701042175293
1758587632.4328246,1758587632.5752175,212.85247802734375,0.034332275390625,0.09179115295410156,64.43476676940918,64.52655792236328,64.68439102172852,66.5578842163086
1758587632.6493704,1758587632.790625,207.52716064453125,0.03504753112792969,0.0667572021484375,64.47815895080566,64.5449161529541,64.71037864685059,66.58506393432617
1758587632.8584104,1758587633.0060732,219.44117546081543,0.034332275390625,0.06771087646484375,64.32652473449707,64.39423561096191,64.56708908081055,66.71142578125
1758587633.0813806,1758587633.2214553,209.7032070159912,0.035762786865234375,0.06747245788574219,64.36371803283691,64.43119049072266,64.5899772644043,66.59674644470215
1758587633.294381,1758587633.436809,208.06431770324707,0.03600120544433594,0.06890296936035156,63.77363204956055,63.8425350189209,64.00084495544434,66.21456146240234
1758587633.50258,1758587633.6500065,224.49922561645508,0.6034374237060547,0.06985664367675781,64.48197364807129,64.55183029174805,65.7954216003418,212.15105056762695
1758587633.739358,1758587633.8646178,201.29847526550293,0.27489662170410156,0.06175041198730469,65.38200378417969,65.44375419616699,66.11824035644531,188.45319747924805
1758587633.9444075,1758587634.0165062,165.20261764526367,0.16379356384277344,0.05841255187988281,65.74535369873047,65.80376625061035,66.38956069946289,148.4975814819336
1758587634.1173394,1758587634.2317433,220.24774551391602,0.16045570373535156,0.057697296142578125,65.12022018432617,65.17791748046875,65.74892997741699,150.74753761291504
1758587634.3377893,1758587634.5104444,266.0233974456787,0.1468658447265625,0.05841255187988281,65.23656845092773,65.29498100280762,65.75727462768555,214.88618850708008
1758587634.60775,1758587634.6629453,208.70542526245117,0.035762786865234375,0.06794929504394531,64.19539451599121,64.26334381103516,64.60356712341309,151.02005004882812
1758587634.8203614,1758587634.8781836,211.0311985015869,0.03647804260253906,0.07748603820800781,64.09525871276855,64.17274475097656,64.50796127319336,151.4413356781006
1758587635.0358434,1758587635.0935283,211.55023574829102,0.034809112548828125,0.06866455078125,63.82465362548828,63.89331817626953,64.24427032470703,150.74443817138672
1758587635.2479491,1758587635.3108068,274.54543113708496,0.14257431030273438,0.072479248046875,61.777353286743164,61.84983253479004,62.26849555969238,150.59924125671387
1758587635.5226088,1758587635.524701,69.78297233581543,0.016450881958007812,0.06842613220214844,63.097238540649414,63.16566467285156,63.27033042907715,64.30315971374512
1758587635.5925395,1758587635.7381768,216.13287925720215,0.03528594970703125,0.07677078247070312,63.989877700805664,64.06664848327637,64.22567367553711,66.1172866821289
1758587635.8088174,1758587635.9533591,209.99598503112793,0.03528594970703125,0.06914138793945312,63.657283782958984,63.72642517089844,63.886404037475586,66.17498397827148
1758587636.021604,1758587636.1692367,215.03758430480957,0.13375282287597656,0.06985664367675781,62.360525131225586,62.430381774902344,62.81852722167969,66.25032424926758
1758587636.236794,1758587636.3832219,232.37347602844238,0.19288063049316406,0.06890296936035156,63.376665115356445,63.4455680847168,65.02652168273926,194.37909126281738
1758587636.469301,1758587636.5972772,216.8862819671631,0.28896331787109375,0.06628036499023438,64.78595733642578,64.85223770141602,65.64855575561523,192.6095485687256
1758587636.6863596,1758587636.8118339,201.55572891235352,0.2701282501220703,0.06008148193359375,65.6890869140625,65.7491683959961,66.43319129943848,190.83571434020996
1758587636.8915973,1758587636.9639652,167.0217514038086,0.16307830810546875,0.058650970458984375,64.97836112976074,65.03701210021973,65.65070152282715,147.47381210327148
1758587637.0673492,1758587637.241795,266.07751846313477,1.3918876647949219,0.06747245788574219,63.88568878173828,63.95316123962402,65.61708450317383,192.01159477233887
1758587637.3338666,1758587637.3958602,214.53404426574707,0.034332275390625,0.06914138793945312,63.28558921813965,63.3547306060791,63.70139122009277,150.25091171264648
1758587637.5485132,1758587637.6100514,215.8820629119873,0.03600120544433594,0.06914138793945312,64.27574157714844,64.34488296508789,64.6817684173584,150.92754364013672
1758587637.7645502,1758587637.8255785,211.9617462158203,0.034809112548828125,0.06771087646484375,64.12672996520996,64.1944408416748,64.52631950378418,150.76184272766113
1758587637.9768584,1758587638.040421,213.8669490814209,1.5752315521240234,0.0743865966796875,62.87384033203125,62.94822692871094,64.7580623626709,127.42447853088379
1758587638.1908736,1758587638.2567933,154.51931953430176,0.05364418029785156,0.0705718994140625,63.07053565979004,63.1411075592041,63.318490982055664,128.38387489318848
1758587638.3493621,1758587638.472398,271.95262908935547,0.1385211944580078,0.07009506225585938,62.32738494873047,62.39748001098633,62.876224517822266,87.70227432250977
1758587638.6219623,1758587638.6873655,215.6233787536621,0.04792213439941406,0.07081031799316406,63.230037689208984,63.30084800720215,63.65609169006348,149.79195594787598
1758587638.840396,1758587638.9015262,212.06426620483398,0.03504753112792969,0.07033348083496094,63.807010650634766,63.87734413146973,64.2080307006836,151.20863914489746
1758587639.0526066,1758587639.1156414,150.73823928833008,0.23317337036132812,0.06890296936035156,64.57924842834473,64.64815139770508,66.38956069946289,128.4925937652588
1758587639.2083406,1758587639.3325567,209.55991744995117,0.13113021850585938,0.06937980651855469,62.75177001953125,62.821149826049805,63.07244300842285,128.88336181640625
1758587639.4180527,1758587639.545696,214.91312980651855,0.6146430969238281,0.0705718994140625,64.03779983520508,64.10837173461914,66.09964370727539,192.8861141204834
1758587639.63735,1758587639.762255,274.08313751220703,0.1914501190185547,0.07009506225585938,63.309431076049805,63.379526138305664,65.12260437011719,150.1922607421875
1758587639.9120412,1758587639.9774613,215.88659286499023,0.049114227294921875,0.06961822509765625,62.92223930358887,62.99185752868652,63.34185600280762,150.25782585144043
1758587640.1344075,1758587640.1921039,208.94098281860352,0.0362396240234375,0.06985664367675781,63.935279846191406,64.00513648986816,64.3470287322998,151.53026580810547
1758587640.3434997,1758587640.4070525,150.374174118042,1.0831356048583984,0.07677078247070312,63.33160400390625,63.40837478637695,65.9637451171875,128.662109375
1758587640.494025,1758587640.6232724,215.38925170898438,0.18453598022460938,0.06842613220214844,63.41218948364258,63.48061561584473,65.00840187072754,131.24442100524902
1758587640.7099516,1758587640.8378303,215.24500846862793,0.048160552978515625,0.06985664367675781,63.96818161010742,64.03803825378418,64.21637535095215,87.41593360900879
1758587640.9253635,1758587641.0519516,213.78850936889648,0.6430149078369141,0.07104873657226562,64.0861988067627,64.15724754333496,66.45536422729492,192.1544075012207
1758587641.139318,1758587641.2670124,201.28154754638672,0.3933906555175781,0.064849853515625,64.93258476257324,64.99743461608887,65.643310546875,192.19136238098145
1758587641.3444033,1758587641.4197729,163.03706169128418,0.03814697265625,0.06914138793945312,64.15605545043945,64.2251968383789,64.56160545349121,88.07945251464844
1758587641.507544,1758587641.6340523,219.85101699829102,0.2963542938232422,0.06747245788574219,65.12880325317383,65.19627571105957,65.98758697509766,191.5264129638672
1758587641.727536,1758587641.850092,214.10560607910156,0.0362396240234375,0.07009506225585938,64.21613693237305,64.2862319946289,64.61238861083984,88.17195892333984
1758587641.9493523,1758587642.1272056,247.2221851348877,0.16260147094726562,0.05817413330078125,65.28091430664062,65.3390884399414,65.75560569763184,129.7760009765625
1758587642.1979902,1758587642.2805216,170.49336433410645,0.03886222839355469,0.06818771362304688,63.459157943725586,63.52734565734863,63.87686729431152,87.63384819030762
1758587642.3723752,1758587642.4954596,210.2212905883789,0.03814697265625,0.06890296936035156,63.234567642211914,63.303470611572266,63.63248825073242,88.00339698791504
1758587642.5833564,1758587642.7088766,214.19000625610352,0.03790855407714844,0.06699562072753906,64.66436386108398,64.73135948181152,65.05227088928223,88.10305595397949
1758587642.7985005,1758587642.9250336,215.9426212310791,0.03933906555175781,0.07081031799316406,63.848257064819336,63.9190673828125,64.2545223236084,87.6455307006836
1758587643.0183327,1758587643.1392183,209.5346450805664,0.04744529724121094,0.06723403930664062,64.66364860534668,64.73088264465332,65.07754325866699,88.13285827636719
1758587643.2280138,1758587643.354916,215.44146537780762,0.035762786865234375,0.06914138793945312,63.78936767578125,63.8585090637207,64.18681144714355,87.73350715637207
1758587643.4453604,1758587643.5705519,214.5397663116455,0.03886222839355469,0.07033348083496094,63.720703125,63.79103660583496,64.1181468963623,87.8448486328125
1758587643.6600504,1758587643.7847686,212.0664119720459,0.03838539123535156,0.06818771362304688,63.84634971618652,63.91453742980957,64.23568725585938,87.56828308105469
1758587643.8722816,1758587643.9987938,215.44146537780762,0.6060600280761719,0.06985664367675781,64.64266777038574,64.7125244140625,66.99061393737793,192.78979301452637
1758587644.088509,1758587644.2156026,224.33710098266602,0.27441978454589844,0.06842613220214844,63.68708610534668,63.75551223754883,64.76736068725586,150.2234935760498
1758587644.314535,1758587644.4295316,190.08779525756836,0.1475811004638672,0.05817413330078125,65.14573097229004,65.20390510559082,65.6130313873291,129.47368621826172
1758587644.508406,1758587644.6447608,209.425687789917,0.1537799835205078,0.057697296142578125,65.5207633972168,65.57846069335938,65.9937858581543,129.92143630981445
1758587644.722374,1758587644.860124,207.31091499328613,0.1590251922607422,0.05698204040527344,64.72373008728027,64.78071212768555,65.21177291870117,129.22191619873047
1758587644.9333587,1758587645.0129602,167.28711128234863,0.03790855407714844,0.06818771362304688,64.02111053466797,64.08929824829102,64.42594528198242,87.68248558044434
1758587645.1007934,1758587645.2264667,214.3867015838623,0.2944469451904297,0.06651878356933594,64.95308876037598,65.01960754394531,66.73288345336914,191.62607192993164
1758587645.3183522,1758587645.443702,225.31676292419434,0.247955322265625,0.07081031799316406,67.1546459197998,67.22545623779297,67.73138046264648,133.26430320739746
1758587645.5437708,1758587645.5982413,141.66903495788574,0.03218650817871094,0.06866455078125,61.23924255371094,61.30790710449219,61.63430213928223,84.19013023376465
1758587645.6855505,1758587645.8118305,274.9207019805908,0.13780593872070312,0.07104873657226562,62.58225440979004,62.653303146362305,63.12918663024902,88.19341659545898
1758587645.9606287,1758587646.0257723,151.66568756103516,0.2377033233642578,0.07128715515136719,63.49468231201172,63.565969467163086,64.26095962524414,128.26895713806152
1758587646.1124468,1758587646.2393107,200.2418041229248,0.1747608184814453,0.057697296142578125,65.00887870788574,65.06657600402832,65.50908088684082,129.7283172607422
1758587646.3128352,1758587646.3923495,169.60644721984863,0.03790855407714844,0.06961822509765625,63.57169151306152,63.64130973815918,63.97390365600586,87.67485618591309
1758587646.4825473,1758587646.6069796,215.12842178344727,0.03838539123535156,0.07176399230957031,63.95077705383301,64.02254104614258,64.35751914978027,87.79740333557129
1758587646.7013552,1758587646.8226485,207.9598903656006,0.03910064697265625,0.07009506225585938,63.16566467285156,63.23575973510742,63.55094909667969,87.42547035217285
1758587646.9094567,1758587647.0353003,215.0254249572754,0.6563663482666016,0.087738037109375,64.94832038879395,65.03605842590332,66.18213653564453,191.07627868652344
1758587647.1253376,1758587647.2501457,207.3040008544922,0.34236907958984375,0.06771087646484375,65.06633758544922,65.13404846191406,66.18833541870117,189.84103202819824
1758587647.3363948,1758587647.4652283,206.01606369018555,0.26988983154296875,0.060558319091796875,65.40560722351074,65.46616554260254,66.14017486572266,190.2139186859131
1758587647.5523665,1758587647.680361,198.4705924987793,0.2644062042236328,0.05888938903808594,65.35220146179199,65.41109085083008,66.06626510620117,190.0625228881836
1758587647.7633615,1758587647.8957777,208.35542678833008,0.2617835998535156,0.059604644775390625,65.29831886291504,65.35792350769043,66.00570678710938,190.71173667907715
1758587647.974404,1758587648.0476968,171.65374755859375,0.16021728515625,0.05888938903808594,65.35887718200684,65.41776657104492,65.9942626953125,147.6302146911621
1758587648.1533344,1758587648.3266916,250.33855438232422,0.22673606872558594,0.058650970458984375,65.82498550415039,65.88363647460938,66.51520729064941,193.6182975769043
1758587648.4074085,1758587648.4788194,169.62242126464844,0.16236305236816406,0.056743621826171875,65.07563591003418,65.13237953186035,65.72270393371582,147.2768783569336
1758587648.5853238,1758587648.6937504,206.3770294189453,0.16236305236816406,0.057697296142578125,64.99719619750977,65.05489349365234,65.62423706054688,151.53026580810547
1758587648.8003361,1758587648.9722168,247.29371070861816,0.2982616424560547,0.06008148193359375,65.02413749694824,65.08421897888184,65.765380859375,192.7177906036377
1758587649.0514069,1758587649.1237242,169.02780532836914,0.15926361083984375,0.057697296142578125,65.29498100280762,65.3526782989502,65.92679023742676,148.284912109375
1758587649.2243602,1758587649.3406363,203.26828956604004,0.125885009765625,0.06985664367675781,63.17877769470215,63.248634338378906,64.8031234741211,150.98261833190918
1758587649.4304297,1758587649.5546865,218.25098991394043,0.026226043701171875,0.06866455078125,64.03589248657227,64.10455703735352,64.4371509552002,88.09638023376465
1758587649.6491961,1758587649.7703533,211.23862266540527,0.0400543212890625,0.06866455078125,63.67325782775879,63.74192237854004,64.09096717834473,87.9204273223877
1758587649.8643596,1758587649.9869897,270.80798149108887,0.13899803161621094,0.07104873657226562,62.64758110046387,62.71862983703613,63.16041946411133,87.92257308959961
1758587650.135789,1758587650.2017086,214.97178077697754,0.12612342834472656,0.06985664367675781,63.02142143249512,63.091278076171875,63.52877616882324,87.48912811279297
1758587650.3553464,1758587650.4163084,211.6405963897705,0.034809112548828125,0.06961822509765625,63.32659721374512,63.39621543884277,63.723087310791016,150.45928955078125
1758587650.5670915,1758587650.631043,215.97552299499512,0.034332275390625,0.06866455078125,64.23616409301758,64.30482864379883,64.63766098022461,151.33094787597656
1758587650.78342,1758587650.8461237,213.03081512451172,0.1404285430908203,0.06818771362304688,64.29457664489746,64.36276435852051,64.64219093322754,126.52206420898438
1758587651.000146,1758587651.0628932,212.4950885772705,0.033855438232421875,0.06937980651855469,62.903404235839844,62.9727840423584,63.315391540527344,149.71446990966797
1758587651.2207143,1758587651.2767425,206.76684379577637,0.03600120544433594,0.07128715515136719,63.62032890319824,63.69161605834961,64.02039527893066,150.8181095123291
1758587651.4303873,1758587651.492957,284.36851501464844,0.1239776611328125,0.07104873657226562,62.58583068847656,62.65687942504883,63.044071197509766,150.36725997924805
1758587651.714961,1758587651.7689953,207.489013671875,0.03457069396972656,0.06866455078125,63.99726867675781,64.06593322753906,64.39781188964844,151.75366401672363
1758587651.9263325,1758587651.9845457,193.41564178466797,0.035762786865234375,0.06842613220214844,64.14580345153809,64.21422958374023,64.53895568847656,135.3585720062256
1758587652.120086,1758587652.1790614,209.48505401611328,0.13184547424316406,0.07843971252441406,64.19515609741211,64.27359580993652,64.54849243164062,122.6968765258789
1758587652.330066,1758587652.3959048,215.38352966308594,0.045299530029296875,0.08130073547363281,62.53838539123535,62.619686126708984,62.81280517578125,87.40615844726562
1758587652.5455527,1758587652.732097,261.08312606811523,0.270843505859375,0.06031990051269531,65.1707649230957,65.2310848236084,65.9024715423584,188.83538246154785
1758587652.811358,1758587652.8837676,177.22296714782715,0.16379356384277344,0.05793571472167969,65.21868705749512,65.2766227722168,65.86027145385742,148.53453636169434
1758587652.988715,1758587653.1619177,252.02178955078125,0.2651214599609375,0.06079673767089844,65.13309478759766,65.19389152526855,65.91272354125977,192.25144386291504
1758587653.2444193,1758587653.3136392,161.24320030212402,0.1735687255859375,0.0591278076171875,65.21177291870117,65.27090072631836,65.89651107788086,147.2780704498291
1758587653.4116852,1758587653.5287452,220.90649604797363,0.1595020294189453,0.05817413330078125,65.21129608154297,65.26947021484375,65.84501266479492,151.62110328674316
1758587653.63635,1758587653.8076484,241.54305458068848,0.2949237823486328,0.060558319091796875,64.99052047729492,65.05107879638672,65.74606895446777,192.92235374450684
1758587653.8853784,1758587653.9591742,169.23904418945312,0.16927719116210938,0.05650520324707031,65.28401374816895,65.34051895141602,65.91057777404785,148.50640296936035
1758587654.05472,1758587654.176858,275.6795883178711,0.171661376953125,0.07009506225585938,62.967538833618164,63.03763389587402,63.74835968017578,151.47089958190918
1758587654.3343387,1758587654.390919,208.1449031829834,0.03647804260253906,0.06818771362304688,64.4376277923584,64.50581550598145,64.8336410522461,151.37696266174316
1758587654.5425942,1758587654.605615,150.3293514251709,0.23055076599121094,0.06866455078125,64.32247161865234,64.3911361694336,66.08390808105469,128.1428337097168
1758587654.6930726,1758587654.82148,215.07740020751953,0.18072128295898438,0.06985664367675781,63.74788284301758,63.817739486694336,65.33479690551758,130.80811500549316
1758587654.9083135,1758587655.035941,202.33440399169922,0.6468296051025391,0.08678436279296875,64.53347206115723,64.6202564239502,66.76936149597168,193.36771965026855
1758587655.1107817,1758587655.1884842,167.65308380126953,0.0438690185546875,0.06961822509765625,64.33773040771484,64.4073486328125,64.74089622497559,149.10149574279785
1758587655.2823555,1758587655.4047437,218.0495262145996,0.03910064697265625,0.06866455078125,63.80295753479004,63.87162208557129,64.19110298156738,87.89610862731934
1758587655.5010736,1758587655.6820083,256.5195560455322,0.14901161193847656,0.05888938903808594,65.63091278076172,65.6898021697998,66.07675552368164,130.27381896972656
1758587655.7577376,1758587655.8976352,210.07633209228516,0.152587890625,0.05984306335449219,64.64910507202148,64.70894813537598,65.12308120727539,129.3792724609375
1758587655.9731774,1758587656.1125157,214.4029140472412,0.1571178436279297,0.05936622619628906,65.32096862792969,65.38033485412598,65.80376625061035,129.95529174804688
1758587656.1885028,1758587656.3279052,209.29455757141113,0.1571178436279297,0.05817413330078125,65.07587432861328,65.13404846191406,65.56057929992676,129.74119186401367
1758587656.4054193,1758587656.5431392,213.9902114868164,0.16188621520996094,0.058650970458984375,65.54841995239258,65.60707092285156,66.02811813354492,130.29050827026367
1758587656.6195698,1758587656.758707,215.0423526763916,0.17499923706054688,0.05817413330078125,65.36507606506348,65.42325019836426,65.8724308013916,130.3853988647461
1758587656.834757,1758587656.9745114,215.9276008605957,0.1537799835205078,0.05817413330078125,65.1087760925293,65.16695022583008,65.60420989990234,130.02991676330566
1758587657.0508547,1758587657.1892674,215.79861640930176,0.15544891357421875,0.058650970458984375,65.31906127929688,65.37771224975586,65.80567359924316,129.96912002563477
1758587657.2668242,1758587657.4039822,212.82148361206055,0.1537799835205078,0.057220458984375,65.39106369018555,65.44828414916992,65.89531898498535,130.20944595336914
1758587657.4834208,1758587657.6195517,210.94989776611328,0.15783309936523438,0.05817413330078125,65.63711166381836,65.69528579711914,66.11990928649902,130.57494163513184
1758587657.6959784,1758587657.8347166,238.5880947113037,0.17786026000976562,0.059604644775390625,65.20295143127441,65.2625560760498,65.69838523864746,129.54354286193848
1758587657.9347072,1758587658.049373,205.15775680541992,0.16689300537109375,0.05793571472167969,64.81456756591797,64.87250328063965,65.27471542358398,149.14894104003906
1758587658.1473362,1758587658.263541,218.26744079589844,0.15497207641601562,0.058650970458984375,65.17481803894043,65.23346900939941,65.76395034790039,151.09777450561523
1758587658.3703344,1758587658.5423918,246.76036834716797,0.28228759765625,0.06008148193359375,65.31739234924316,65.37747383117676,66.05768203735352,193.9096450805664
