Timestamp,ArrivalTime,TotalTime(ms),WaitTime(ms),DecodeTime(ms),InferTime(ms),ServerComputeTime(ms),TotalServer(ms),Total
1759160893.7037616,1759160893.7216947,1585.0203037261963,10.157108306884766,6.717920303344727,1533.5557460784912,1540.273666381836,1551.5267848968506,1560.2903366088867
1759160895.2909756,1759160895.2938132,76.86042785644531,1.2001991271972656,0.24700164794921875,62.78109550476074,63.02809715270996,64.77522850036621,66.88475608825684
1759160895.37095,1759160895.373447,31.224727630615234,4.03594970703125,0.22602081298828125,22.84550666809082,23.0715274810791,27.225017547607422,28.107166290283203
1759160895.4027731,1759160895.410344,46.97299003601074,2.240896224975586,0.18095970153808594,34.47437286376953,34.65533256530762,36.927223205566406,37.53542900085449
1759160895.452724,1759160895.4538813,52.94060707092285,4.935741424560547,0.17571449279785156,41.20445251464844,41.38016700744629,46.35214805603027,46.92506790161133
1759160895.5057936,1759160895.5069942,53.52640151977539,4.906415939331055,0.1742839813232422,41.80645942687988,41.980743408203125,46.92220687866211,47.48940467834473
1759160895.5597103,1759160895.5610766,36.58866882324219,4.665613174438477,0.17118453979492188,21.254777908325195,21.425962448120117,26.198387145996094,26.955604553222656
1759160895.5963926,1759160895.5980194,30.72190284729004,0.5457401275634766,0.1723766326904297,21.25072479248047,21.4231014251709,22.177934646606445,23.257017135620117
1759160895.6272845,1759160895.628438,34.65723991394043,3.108978271484375,0.17452239990234375,21.266698837280273,21.441221237182617,24.65677261352539,25.28214454650879
1759160895.662064,1759160895.6643746,29.536962509155273,0.016927719116210938,0.179290771484375,21.26002311706543,21.439313888549805,21.697282791137695,22.670269012451172
1759160895.6918,1759160895.6929398,30.61509132385254,4.4116973876953125,0.1838207244873047,21.19302749633789,21.376848220825195,25.88963508605957,26.501893997192383
1759160895.7225027,1759160895.729902,42.978525161743164,0.017404556274414062,0.17142295837402344,32.87243843078613,33.043861389160156,33.29825401306152,35.160064697265625
1759160895.7664201,1759160895.76756,43.347835540771484,7.077932357788086,0.17547607421875,31.57782554626465,31.7533016204834,38.86890411376953,39.42537307739258
1759160895.8129103,1759160895.8150337,44.797420501708984,2.662181854248047,0.17118453979492188,31.988143920898438,32.15932846069336,34.97028350830078,35.94231605529785
1759160895.8583527,1759160895.8611786,42.06418991088867,0.13399124145507812,0.1862049102783203,31.643390655517578,31.8295955657959,32.17315673828125,33.145904541015625
1759160895.9010823,1759160895.9026542,39.20793533325195,1.6872882843017578,0.179290771484375,31.86345100402832,32.042741775512695,33.91456604003906,34.813642501831055
1759160895.9416356,1759160895.9478192,41.6409969329834,0.017404556274414062,0.17189979553222656,32.0429801940918,32.21487998962402,32.47499465942383,33.75601768493652
1759160895.9847314,1759160895.9858568,43.272972106933594,5.605936050415039,0.1742839813232422,31.84676170349121,32.02104568481445,37.657737731933594,38.20347785949707
1759160896.0294929,1759160896.030638,44.580698013305664,4.196643829345703,0.17309188842773438,31.57973289489746,31.752824783325195,36.05461120605469,36.667585372924805
1759160896.074194,1759160896.0780692,38.73491287231445,0.017642974853515625,0.1723766326904297,30.90071678161621,31.07309341430664,31.339168548583984,32.44304656982422
1759160896.116597,1759160896.1180263,35.40349006652832,2.2754669189453125,0.20051002502441406,29.668569564819336,29.86907958984375,32.28425979614258,33.15091133117676
1759160896.1525521,1759160896.158313,39.83759880065918,3.2529830932617188,0.1690387725830078,22.901296615600586,23.070335388183594,26.359081268310547,27.22454071044922
1759160896.1925461,1759160896.1958187,46.68545722961426,0.01621246337890625,0.17023086547851562,38.31911087036133,38.489341735839844,38.75446319580078,39.813995361328125
1759160896.2417517,1759160896.245152,50.32658576965332,0.28896331787109375,0.17142295837402344,43.49112510681152,43.66254806518555,44.129133224487305,46.19789123535156
1759160896.2960916,1759160896.2975357,45.15218734741211,2.9990673065185547,0.18405914306640625,31.605243682861328,31.789302825927734,34.93809700012207,35.77089309692383
1759160896.3413458,1759160896.343009,43.444156646728516,0.5280971527099609,0.17309188842773438,34.00683403015137,34.1799259185791,34.91997718811035,35.991668701171875
1759160896.3854165,1759160896.3873131,49.413204193115234,1.8658638000488281,0.1735687255859375,38.40947151184082,38.58304023742676,40.62485694885254,41.62454605102539
1759160896.434916,1759160896.4391384,32.63592720031738,0.12350082397460938,0.18477439880371094,21.236181259155273,21.420955657958984,21.761655807495117,22.88031578063965
1759160896.468173,1759160896.4697332,31.856298446655273,2.2051334381103516,0.17142295837402344,21.221637725830078,21.3930606842041,23.747682571411133,24.419069290161133
1759160896.500133,1759160896.5013149,29.567480087280273,3.269672393798828,0.1685619354248047,21.31795883178711,21.486520767211914,24.862289428710938,25.47454833984375
1759160896.5334034,1759160896.5348744,28.962373733520508,2.3162364959716797,0.18024444580078125,21.23737335205078,21.417617797851562,23.874759674072266,24.77550506591797
1759160896.5667655,1759160896.5691245,28.9919376373291,0.06341934204101562,0.16999244689941406,23.352384567260742,23.522377014160156,23.82063865661621,25.25162696838379
1759160896.597405,1759160896.6037755,50.39501190185547,0.13327598571777344,0.171661376953125,38.47527503967285,38.64693641662598,38.98954391479492,40.13943672180176
1759160896.6479194,1759160896.6512473,51.5289306640625,2.5551319122314453,0.17023086547851562,42.832136154174805,43.00236701965332,45.65763473510742,46.301841735839844
1759160896.6999247,1759160896.7067173,52.64019966125488,1.1715888977050781,0.17189979553222656,41.51272773742676,41.684627532958984,43.00332069396973,43.76697540283203
1759160896.7542856,1759160896.7607062,45.671939849853516,0.034332275390625,0.17261505126953125,33.147335052490234,33.319950103759766,33.59699249267578,35.13026237487793
1759160896.8000827,1759160896.8015919,47.693729400634766,4.141569137573242,0.1704692840576172,35.681724548339844,35.85219383239746,40.09675979614258,40.72880744934082
1759160896.847921,1759160896.851109,28.461456298828125,2.046346664428711,0.1704692840576172,21.12555503845215,21.296024322509766,23.520708084106445,24.342775344848633
1759160896.8765123,1759160896.881664,32.70292282104492,4.309654235839844,0.16927719116210938,21.126985549926758,21.296262741088867,25.711774826049805,27.271032333374023
1759160896.909341,1759160896.9130695,36.675214767456055,5.6552886962890625,0.16999244689941406,21.324872970581055,21.49486541748047,27.184724807739258,27.99367904663086
1759160896.9481575,1759160896.950282,33.64753723144531,1.2509822845458984,0.16999244689941406,22.00007438659668,22.170066833496094,23.56696128845215,24.494171142578125
1759160896.9819484,1759160896.9848583,48.96116256713867,0.016450881958007812,0.1709461212158203,40.13204574584961,40.30299186706543,40.567874908447266,41.60761833190918
1759160897.0315387,1759160897.0364301,51.056861877441406,0.1366138458251953,0.17070770263671875,43.12252998352051,43.29323768615723,43.6403751373291,44.707536697387695
1759160897.0831113,1759160897.091124,50.37212371826172,0.017881393432617188,0.16760826110839844,37.157297134399414,37.32490539550781,37.58120536804199,38.76662254333496
1759160897.1349006,1759160897.1369674,48.015594482421875,2.888202667236328,0.16736984252929688,33.792972564697266,33.96034240722656,36.95034980773926,37.7347469329834
1759160897.1830366,1759160897.185367,41.7325496673584,0.016689300537109375,0.17976760864257812,31.827211380004883,32.00697898864746,32.2728157043457,33.303260803222656
1759160897.2249374,1759160897.2260633,34.38234329223633,2.710103988647461,0.1697540283203125,21.227121353149414,21.396875381469727,24.248123168945312,24.999380111694336
1759160897.2599728,1759160897.2617843,27.83346176147461,0.01811981201171875,0.16927719116210938,21.43073081970215,21.600008010864258,21.872997283935547,23.047447204589844
1759160897.2898,1759160897.2948139,30.42006492614746,0.13113021850585938,0.17118453979492188,21.843910217285156,22.015094757080078,22.352218627929688,23.819446563720703
1759160897.3226395,1759160897.3237617,34.925222396850586,4.172563552856445,0.19812583923339844,21.361827850341797,21.559953689575195,25.763750076293945,26.313066482543945
1759160897.358498,1759160897.3596222,32.70888328552246,0.9257793426513672,0.17142295837402344,23.595094680786133,23.766517639160156,24.897098541259766,25.734424591064453
1759160897.3918903,1759160897.3956385,49.432992935180664,0.03600120544433594,0.18310546875,41.05496406555176,41.23806953430176,41.50533676147461,42.63472557067871
1759160897.4415457,1759160897.4482434,45.32003402709961,0.016927719116210938,0.18978118896484375,33.8134765625,34.003257751464844,34.269094467163086,35.66741943359375
1759160897.489787,1759160897.4912136,44.0669059753418,2.595663070678711,0.17881393432617188,33.072710037231445,33.25152397155762,35.988807678222656,36.75127029418945
1759160897.5345383,1759160897.5360835,45.34149169921875,2.1724700927734375,0.17905235290527344,37.81270980834961,37.99176216125488,40.30346870422363,41.05329513549805
1759160897.5820825,1759160897.5835254,51.74517631530762,3.7567615509033203,0.17976760864257812,42.916297912597656,43.096065521240234,47.00350761413574,47.87755012512207
1759160897.6350656,1759160897.6415334,31.92305564880371,0.016450881958007812,0.16951560974121094,21.128416061401367,21.297931671142578,21.556854248046875,22.380590438842773
1759160897.667286,1759160897.6739883,31.684398651123047,0.017881393432617188,0.17213821411132812,21.301746368408203,21.47388458251953,21.729230880737305,22.815704345703125
1759160897.6993191,1759160897.7004614,38.08426856994629,6.06846809387207,0.17571449279785156,21.632909774780273,21.808624267578125,27.9080867767334,28.470516204833984
1759160897.7380617,1759160897.7396812,29.134035110473633,0.031948089599609375,0.16832351684570312,21.202802658081055,21.371126174926758,21.638870239257812,22.786855697631836
1759160897.7672834,1759160897.7687755,29.556989669799805,3.931760787963867,0.17309188842773438,21.567344665527344,21.740436553955078,25.773286819458008,26.390552520751953
1759160897.79813,1759160897.7992613,56.58459663391113,6.554841995239258,0.16760826110839844,39.30234909057617,39.46995735168457,46.059370040893555,46.61059379577637
1759160897.8548388,1759160897.8566494,48.165082931518555,0.018596649169921875,0.1709461212158203,43.488264083862305,43.659210205078125,43.92647743225098,45.00603675842285
1759160897.9034128,1759160897.9101934,53.04718017578125,1.1146068572998047,0.17690658569335938,40.071725845336914,40.24863243103027,41.46552085876465,42.36769676208496
1759160897.957313,1759160897.9587429,46.00214958190918,3.9627552032470703,0.16880035400390625,34.011125564575195,34.1799259185791,38.28883171081543,39.05892372131348
1759160898.0043797,1759160898.00592,40.95935821533203,2.3190975189208984,0.18072128295898438,28.818368911743164,28.99909019470215,31.45742416381836,32.2420597076416
1759160898.0460093,1759160898.0481534,26.982545852661133,0.05269050598144531,0.16832351684570312,21.18682861328125,21.355152130126953,21.64936065673828,22.984981536865234
1759160898.0758998,1759160898.0773258,33.323049545288086,3.5295486450195312,0.16951560974121094,21.283864974975586,21.453380584716797,25.133848190307617,25.97808837890625
1759160898.1098425,1759160898.1133268,27.599573135375977,0.49185752868652344,0.1735687255859375,21.458148956298828,21.631717681884766,22.333383560180664,23.44369888305664
1759160898.1375668,1759160898.1438587,35.41064262390137,3.0481815338134766,0.16880035400390625,21.138906478881836,21.307706832885742,24.390459060668945,25.479793548583984
1759160898.1731007,1759160898.179158,34.93046760559082,0.016689300537109375,0.16832351684570312,23.041248321533203,23.209571838378906,23.476600646972656,24.552345275878906
1759160898.2081554,1759160898.20928,48.21348190307617,4.646062850952148,0.16951560974121094,37.92524337768555,38.09475898742676,42.77181625366211,43.31684112548828
1759160898.25794,1759160898.2600284,50.92620849609375,3.360271453857422,0.1842975616455078,41.82910919189453,42.01340675354004,45.47762870788574,46.27346992492676
1759160898.3093312,1759160898.3158393,51.05948448181152,0.7722377777099609,0.17023086547851562,41.65196418762207,41.822195053100586,42.774200439453125,43.978214263916016
1759160898.3604987,1759160898.3689146,46.00167274475098,0.9579658508300781,0.171661376953125,32.90152549743652,33.07318687438965,34.2104434967041,37.15372085571289
1759160898.4068615,1759160898.4138703,41.5499210357666,0.30303001403808594,0.16880035400390625,31.125783920288086,31.294584274291992,31.806468963623047,32.98807144165039
1759160898.4500535,1759160898.451175,30.3955078125,5.128622055053711,0.18835067749023438,21.142005920410156,21.33035659790039,26.489973068237305,27.03070640563965
1759160898.4830725,1759160898.4841986,36.666154861450195,4.6062469482421875,0.16951560974121094,21.198511123657227,21.368026733398438,26.01003646850586,26.575803756713867
1759160898.5198634,1759160898.5216568,26.009082794189453,0.0171661376953125,0.17142295837402344,21.40069007873535,21.572113037109375,21.831274032592773,22.904634475708008
1759160898.5462265,1759160898.5533607,33.76436233520508,1.1296272277832031,0.171661376953125,21.144628524780273,21.3162899017334,22.620439529418945,23.525238037109375
1759160898.5801113,1759160898.587082,31.35061264038086,0.26535987854003906,0.18095970153808594,22.357940673828125,22.53890037536621,23.01311492919922,25.45475959777832
1759160898.6115837,1759160898.617911,52.3378849029541,3.331422805786133,0.17833709716796875,40.64202308654785,40.82036018371582,44.295310974121094,45.0594425201416
1759160898.6640997,1759160898.670365,54.47816848754883,2.874612808227539,0.1766681671142578,41.625261306762695,41.80192947387695,44.7840690612793,46.33450508117676
1759160898.7204225,1759160898.7255554,43.86019706726074,0.5893707275390625,0.19598007202148438,32.99450874328613,33.19048881530762,33.96749496459961,35.303354263305664
1759160898.7657804,1759160898.7698143,41.27192497253418,1.2476444244384766,0.171661376953125,31.445980072021484,31.61764144897461,33.03933143615723,33.79631042480469
1759160898.8071737,1759160898.8140662,52.95133590698242,0.017642974853515625,0.17547607421875,42.067766189575195,42.243242263793945,42.5112247467041,43.58053207397461
1759160898.8652427,1759160898.8672714,25.484561920166016,0.2865791320800781,0.1728534698486328,21.214008331298828,21.38686180114746,21.88897132873535,23.383617401123047
1759160898.8909085,1759160898.897675,35.31217575073242,2.6862621307373047,0.18095970153808594,21.26026153564453,21.441221237182617,24.22952651977539,24.884700775146484
1759160898.9291446,1759160898.9305701,31.676530838012695,2.3801326751708984,0.1697540283203125,21.214723587036133,21.384477615356445,23.914813995361328,24.780750274658203
1759160898.9622085,1759160898.9633193,27.990102767944336,2.2318363189697266,0.1742839813232422,21.11053466796875,21.284818649291992,23.689746856689453,24.534940719604492
1759160898.990457,1759160898.9940026,54.86321449279785,4.495382308959961,0.16927719116210938,42.70768165588379,42.8769588470459,47.48415946960449,48.17509651184082
1759160899.047372,1759160899.048882,44.55423355102539,3.634929656982422,0.16951560974121094,34.25860404968262,34.42811965942383,38.16962242126465,38.7876033782959
1759160899.0938087,1759160899.0982902,41.48674011230469,0.01621246337890625,0.17571449279785156,33.73837471008301,33.91408920288086,34.177303314208984,35.15028953552246
1759160899.137409,1759160899.138526,51.56111717224121,5.029439926147461,0.16999244689941406,40.42506217956543,40.595054626464844,45.655250549316406,46.211957931518555
1759160899.1892467,1759160899.1943128,52.09612846374512,1.275777816772461,0.16880035400390625,41.31031036376953,41.47911071777344,42.86050796508789,44.24142837524414
1759160899.241471,1759160899.2466073,31.481027603149414,1.814126968383789,0.17023086547851562,21.22187614440918,21.392107009887695,23.379802703857422,24.329662322998047
1759160899.2746542,1759160899.275774,30.986309051513672,5.327463150024414,0.17547607421875,21.487712860107422,21.663188934326172,27.028560638427734,27.58502960205078
1759160899.3069613,1759160899.3088484,36.19265556335449,5.332469940185547,0.17070770263671875,21.211862564086914,21.382570266723633,26.81446075439453,27.43220329284668
1759160899.3436425,1759160899.3447833,29.54578399658203,2.334117889404297,0.1685619354248047,21.49510383605957,21.663665771484375,24.14083480834961,24.88112449645996
1759160899.375418,1759160899.3774908,35.28285026550293,2.4459362030029297,0.16999244689941406,22.490978240966797,22.66097068786621,25.214672088623047,26.02386474609375
1759160899.4117315,1759160899.4136238,52.82402038574219,0.04363059997558594,0.17189979553222656,42.10996627807617,42.2818660736084,42.589664459228516,43.7617301940918
1759160899.4646583,1759160899.466146,46.87762260437012,1.0769367218017578,0.1780986785888672,41.00227355957031,41.18037223815918,42.43350028991699,43.39122772216797
1759160899.511823,1759160899.5188103,55.34648895263672,0.7545948028564453,0.1697540283203125,42.77920722961426,42.94896125793457,43.883323669433594,45.05729675292969
1759160899.567367,1759160899.5716538,48.4766960144043,2.2733211517333984,0.1742839813232422,37.42408752441406,37.598371505737305,40.05169868469238,41.391849517822266
1759160899.6174326,1759160899.6186469,32.18507766723633,4.307031631469727,0.1678466796875,22.983789443969727,23.151636123657227,27.6033878326416,28.372764587402344
1759160899.6512144,1759160899.6532764,34.763336181640625,3.902435302734375,0.1938343048095703,21.24953269958496,21.44336700439453,25.4514217376709,26.244163513183594
1759160899.6861145,1759160899.6906705,30.579566955566406,0.13637542724609375,0.20003318786621094,22.022485733032227,22.222518920898438,22.59039878845215,24.036407470703125
1759160899.7187166,1759160899.7233703,32.706499099731445,1.249551773071289,0.17714500427246094,21.345853805541992,21.522998809814453,22.923707962036133,23.829221725463867
1759160899.751571,1759160899.7528348,32.64808654785156,4.969120025634766,0.17762184143066406,21.62957191467285,21.807193756103516,26.877641677856445,27.472734451293945
1759160899.7843835,1759160899.7892232,54.744720458984375,1.6939640045166016,0.16999244689941406,41.56684875488281,41.73684120178223,43.61248016357422,44.49605941772461
1759160899.8392522,1759160899.841763,49.81803894042969,2.584218978881836,0.17833709716796875,41.300058364868164,41.47839546203613,44.20733451843262,44.9826717376709
1759160899.8892148,1759160899.8971033,43.39599609375,0.016927719116210938,0.17142295837402344,31.972169876098633,32.143592834472656,32.410621643066406,33.50710868835449
1759160899.9349709,1759160899.940033,45.432329177856445,0.7016658782958984,0.1685619354248047,33.293962478637695,33.4625244140625,34.33990478515625,35.326480865478516
1759160899.9805248,1759160899.985551,48.32267761230469,0.01811981201171875,0.16808509826660156,38.86127471923828,39.02935981750488,39.283037185668945,40.38810729980469
1759160900.029724,1759160900.035726,30.483007431030273,0.11396408081054688,0.16760826110839844,21.226882934570312,21.39449119567871,21.723270416259766,22.78590202331543
1759160900.0603182,1759160900.0672462,32.3336124420166,1.0616779327392578,0.1823902130126953,21.277189254760742,21.459579467773438,22.696495056152344,23.59771728515625
1759160900.0980084,1759160900.1009557,32.08804130554199,0.01621246337890625,0.16927719116210938,21.55160903930664,21.72088623046875,21.976709365844727,22.965192794799805
1759160900.1302361,1759160900.1334674,28.974533081054688,0.8094310760498047,0.18072128295898438,21.404266357421875,21.58498764038086,22.60279655456543,23.695707321166992
1759160900.1593826,1759160900.1605477,38.30671310424805,6.829977035522461,0.17833709716796875,23.055315017700195,23.233652114868164,30.164718627929688,30.802011489868164
1759160900.198294,1759160900.2018485,52.938222885131836,0.13065338134765625,0.16808509826660156,43.16592216491699,43.334007263183594,43.6859130859375,44.71087455749512
1759160900.2518272,1759160900.2531447,43.977975845336914,3.448486328125,0.17786026000976562,34.86514091491699,35.04300117492676,38.63644599914551,39.3824577331543
1759160900.2959237,1759160900.3012981,41.21899604797363,1.8532276153564453,0.17070770263671875,32.09352493286133,32.26423263549805,34.29770469665527,35.04824638366699
1759160900.337784,1759160900.3389115,54.05592918395996,7.740974426269531,0.17118453979492188,36.875247955322266,37.04643249511719,44.81840133666992,45.357465744018555
1759160900.3919287,1759160900.3950582,49.36838150024414,0.015020370483398438,0.1747608184814453,41.92781448364258,42.10257530212402,42.36578941345215,43.33305358886719
1759160900.4442766,1759160900.4473896,27.2672176361084,0.9474754333496094,0.18310546875,21.15154266357422,21.33464813232422,22.455215454101562,23.244619369506836
1759160900.4717157,1759160900.4728873,39.473533630371094,8.312702178955078,0.1685619354248047,21.291017532348633,21.459579467773438,29.80661392211914,30.36332130432129
1759160900.5122256,1759160900.5138214,31.01038932800293,0.03147125244140625,0.16927719116210938,21.214962005615234,21.384239196777344,21.659135818481445,22.708654403686523
1759160900.5433211,1759160900.5464358,27.860403060913086,0.03719329833984375,0.1704692840576172,21.677255630493164,21.84772491455078,22.129058837890625,23.32472801208496
1759160900.572942,1759160900.5740721,51.07760429382324,5.278587341308594,0.17642974853515625,40.99750518798828,41.17393493652344,46.483516693115234,47.02591896057129
1759160900.6260126,1759160900.6271372,53.03359031677246,4.623651504516602,0.16832351684570312,44.09456253051758,44.26288604736328,48.9194393157959,49.47352409362793
1759160900.6791668,1759160900.6802897,45.480966567993164,7.036447525024414,0.17762184143066406,33.0653190612793,33.24294090270996,40.31014442443848,40.85278511047363
1759160900.726717,1759160900.7280383,43.47038269042969,3.835916519165039,0.16927719116210938,32.907724380493164,33.07700157165527,37.0182991027832,37.63628005981445
1759160900.7703986,1759160900.7753866,45.60065269470215,1.1358261108398438,0.1761913299560547,36.190032958984375,36.36622428894043,37.67871856689453,38.603782653808594
1759160900.8164046,1759160900.823315,32.474517822265625,0.7014274597167969,0.16736984252929688,21.135807037353516,21.303176879882812,22.193431854248047,23.291349411010742
1759160900.8489964,1759160900.8501194,32.40799903869629,6.53386116027832,0.1697540283203125,21.234512329101562,21.404266357421875,27.97532081604004,28.532028198242188
1759160900.8833318,1759160900.8844578,33.12969207763672,4.886150360107422,0.17642974853515625,21.22044563293457,21.396875381469727,26.31855010986328,26.864290237426758
1759160900.9166307,1759160900.9177516,34.50655937194824,4.148721694946289,0.1690387725830078,21.281719207763672,21.45075798034668,25.707244873046875,26.318788528442383
1759160900.9517534,1759160900.9541705,29.21009063720703,0.035762786865234375,0.1766681671142578,22.2623348236084,22.439002990722656,22.715091705322266,23.821115493774414
1759160900.9810853,1759160900.9868793,52.733659744262695,1.3203620910644531,0.17714500427246094,42.24348068237305,42.42062568664551,43.915510177612305,44.82436180114746
1759160901.0355082,1759160901.0407271,50.50325393676758,0.9169578552246094,0.17189979553222656,39.77155685424805,39.94345664978027,41.040897369384766,42.050838470458984
1759160901.086132,1759160901.0926514,45.42088508605957,0.13399124145507812,0.17023086547851562,34.310102462768555,34.48033332824707,34.83104705810547,36.20576858520508
1759160901.132715,1759160901.138288,45.12429237365723,0.017404556274414062,0.18310546875,33.49661827087402,33.67972373962402,33.93673896789551,35.04514694213867
1759160901.1787186,1759160901.1798377,50.2324104309082,3.2787322998046875,0.1938343048095703,41.612863540649414,41.806697845458984,45.116424560546875,45.66025733947754
1759160901.229093,1759160901.2341018,34.92236137390137,2.2907257080078125,0.17523765563964844,21.41737937927246,21.59261703491211,24.02949333190918,24.819612503051758
1759160901.2655394,1759160901.2679129,29.91008758544922,1.359701156616211,0.18072128295898438,21.355867385864258,21.536588668823242,23.07605743408203,24.494647979736328
1759160901.2957494,1759160901.301889,30.07197380065918,0.48995018005371094,0.18167495727539062,21.15631103515625,21.33798599243164,22.042036056518555,23.28658103942871
1759160901.3273351,1759160901.3285053,34.83223915100098,6.429433822631836,0.1690387725830078,21.222352981567383,21.39139175415039,27.85205841064453,28.406620025634766
1759160901.3623095,1759160901.365979,29.996871948242188,1.9526481628417969,0.16951560974121094,22.441387176513672,22.610902786254883,24.745941162109375,26.203632354736328
1759160901.392891,1759160901.3992248,50.06861686706543,2.6993751525878906,0.16689300537109375,37.98055648803711,38.1474494934082,40.95339775085449,42.07873344421387
1759160901.4451797,1759160901.4472327,52.622079849243164,3.936767578125,0.16951560974121094,43.49541664123535,43.66493225097656,47.70946502685547,48.49576950073242
1759160901.4982734,1759160901.5035698,45.49860954284668,2.6967525482177734,0.17762184143066406,33.75577926635742,33.933401107788086,36.77535057067871,37.64820098876953
1759160901.5480964,1759160901.5508215,41.14532470703125,0.4754066467285156,0.19931793212890625,33.16688537597656,33.36620330810547,34.160614013671875,35.387277603149414
1759160901.5893686,1759160901.590673,53.2681941986084,5.846977233886719,0.1785755157470703,36.97347640991211,37.15205192565918,43.03383827209473,43.67828369140625
1759160901.64326,1759160901.645047,28.79810333251953,0.0171661376953125,0.1671314239501953,21.124839782714844,21.29197120666504,21.557331085205078,22.452592849731445
1759160901.6721427,1759160901.6732724,35.16340255737305,4.480123519897461,0.1685619354248047,21.195650100708008,21.364212036132812,25.94780921936035,26.55625343322754
1759160901.708141,1759160901.7092571,32.96947479248047,0.90789794921875,0.1709461212158203,22.169828414916992,22.340774536132812,23.424148559570312,24.21402931213379
1759160901.7420318,1759160901.7435777,27.81367301940918,0.5092620849609375,0.1697540283203125,21.240711212158203,21.410465240478516,22.12977409362793,23.139476776123047
1759160901.7709835,1759160901.7762961,37.625789642333984,0.04029273986816406,0.17833709716796875,23.176193237304688,23.354530334472656,23.635149002075195,24.72519874572754
1759160901.8087292,1759160901.8110352,48.395633697509766,0.016450881958007812,0.17070770263671875,38.771867752075195,38.942575454711914,39.19649124145508,40.09747505187988
1759160901.8579679,1759160901.8595471,51.820993423461914,1.7116069793701172,0.18334388732910156,43.72358322143555,43.90692710876465,45.82810401916504,46.94032669067383
1759160901.911063,1759160901.916017,46.44203186035156,0.5478858947753906,0.19311904907226562,32.31000900268555,32.50312805175781,33.260345458984375,34.75236892700195
1759160901.9581435,1759160901.9600224,44.14653778076172,0.04315376281738281,0.20194053649902344,33.53238105773926,33.73432159423828,34.017324447631836,35.06827354431152
1759160902.0027137,1759160902.004033,47.9736328125,1.111745834350586,0.16927719116210938,37.35184669494629,37.5211238861084,38.81025314331055,39.79945182800293
1759160902.0513468,1759160902.0534694,27.11033821105957,0.05412101745605469,0.17261505126953125,21.265506744384766,21.438121795654297,21.73328399658203,23.137807846069336
1759160902.0827525,1759160902.085688,26.773691177368164,0.453948974609375,0.19359588623046875,21.251916885375977,21.445512771606445,22.10688591003418,23.29421043395996
1759160902.1096485,1759160902.116603,34.3472957611084,2.3179054260253906,0.1685619354248047,21.266937255859375,21.43549919128418,23.90742301940918,25.64525604248047
1759160902.1469445,1759160902.1489916,27.80628204345703,2.4700164794921875,0.1723766326904297,21.214723587036133,21.387100219726562,23.959636688232422,24.7499942779541
1759160902.174835,1759160902.1759744,41.503190994262695,8.107900619506836,0.1761913299560547,23.2388973236084,23.415088653564453,31.55803680419922,32.102346420288086
1759160902.2175934,1759160902.2189028,44.139862060546875,0.014543533325195312,0.1761913299560547,40.17782211303711,40.354013442993164,40.6193733215332,41.831254959106445
1759160902.262987,1759160902.2641008,59.168100357055664,6.744384765625,0.1723766326904297,43.718814849853516,43.891191482543945,50.66633224487305,51.203012466430664
1759160902.3222415,1759160902.3257475,51.78976058959961,0.1418590545654297,0.171661376953125,42.326927185058594,42.49858856201172,42.85931587219238,44.13747787475586
1759160902.374156,1759160902.3756156,47.02162742614746,3.8824081420898438,0.17118453979492188,32.94229507446289,33.11347961425781,37.10126876831055,37.69373893737793
1759160902.42175,1759160902.4237792,38.32077980041504,0.035762786865234375,0.1704692840576172,28.72776985168457,28.898239135742188,29.170513153076172,30.127525329589844
1759160902.4602191,1759160902.4636374,29.651641845703125,0.0171661376953125,0.19407272338867188,21.34084701538086,21.53491973876953,21.79408073425293,23.25439453125
1759160902.490536,1759160902.4918687,35.46857833862305,4.622220993041992,0.17142295837402344,21.309614181518555,21.481037139892578,26.24344825744629,26.890039443969727
1759160902.5273619,1759160902.529118,27.138471603393555,0.017881393432617188,0.1697540283203125,21.559476852416992,21.729230880737305,21.986722946166992,23.108243942260742
1759160902.5567892,1759160902.5588264,35.92872619628906,3.1135082244873047,0.17070770263671875,21.13795280456543,21.30866050720215,24.523496627807617,25.294065475463867
1759160902.592861,1759160902.5947173,48.05397987365723,0.017642974853515625,0.17142295837402344,43.83277893066406,44.004201889038086,44.25954818725586,45.26209831237793
1759160902.6422417,1759160902.647567,50.93789100646973,2.5064945220947266,0.16951560974121094,38.51628303527832,38.68579864501953,41.29528999328613,41.936635971069336
1759160902.696752,1759160902.6999485,39.0622615814209,0.016689300537109375,0.16808509826660156,32.927513122558594,33.095598220825195,33.351898193359375,34.210205078125
1759160902.7374978,1759160902.7387094,43.95747184753418,5.510091781616211,0.1709461212158203,33.90312194824219,34.07406806945801,39.68524932861328,40.27509689331055
1759160902.7827878,1759160902.7839167,55.92155456542969,5.634307861328125,0.17881393432617188,39.55435752868652,39.733171463012695,45.40228843688965,45.94111442565918
1759160902.8388557,1759160902.8404741,30.991554260253906,0.0324249267578125,0.16832351684570312,21.229982376098633,21.398305892944336,21.664857864379883,22.79829978942871
1759160902.8705058,1759160902.8725765,31.51392936706543,0.27561187744140625,0.1709461212158203,21.219968795776367,21.390914916992188,21.880149841308594,23.308992385864258
1759160902.902145,1759160902.90531,26.877641677856445,0.17595291137695312,0.21338462829589844,21.38042449951172,21.593809127807617,21.973848342895508,23.162841796875
1759160902.929143,1759160902.9328923,34.50655937194824,5.533695220947266,0.17261505126953125,21.326303482055664,21.498918533325195,27.13751792907715,27.770042419433594
1759160902.9686477,1759160902.9708388,29.346704483032227,0.016927719116210938,0.16951560974121094,21.657943725585938,21.82745933532715,22.080421447753906,23.75316619873047
1759160902.9981294,1759160903.0020442,53.07626724243164,2.101898193359375,0.16880035400390625,41.65911674499512,41.82791709899902,44.10433769226074,44.90852355957031
1759160903.0513258,1759160903.0524383,56.40101432800293,4.645347595214844,0.17499923706054688,42.31667518615723,42.49167442321777,47.17540740966797,47.73879051208496
1759160903.108117,1759160903.1108665,38.73586654663086,0.014543533325195312,0.1678466796875,33.30397605895996,33.47182273864746,33.730506896972656,34.64531898498535
1759160903.1490436,1759160903.1548715,42.7098274230957,0.45108795166015625,0.18525123596191406,32.070159912109375,32.25541114807129,32.87863731384277,34.22403335571289
1759160903.1936688,1759160903.1979203,48.545122146606445,0.7939338684082031,0.1697540283203125,41.54205322265625,41.71180725097656,42.68670082092285,43.50733757019043
1759160903.242795,1759160903.2494335,34.238576889038086,2.533435821533203,0.17690658569335938,21.18659019470215,21.363496780395508,24.044275283813477,24.834394454956055
1759160903.2806633,1759160903.282734,33.13088417053223,1.6252994537353516,0.17452239990234375,21.305322647094727,21.47984504699707,23.209810256958008,23.98395538330078
1759160903.3146956,1759160903.3159962,28.120756149291992,1.0700225830078125,0.17261505126953125,21.335124969482422,21.507740020751953,22.754907608032227,23.70929718017578
1759160903.3439062,1759160903.3491707,34.65914726257324,0.014781951904296875,0.16641616821289062,21.312713623046875,21.479129791259766,21.732807159423828,22.788047790527344
1759160903.3786883,1759160903.3816786,27.97222137451172,0.04839897155761719,0.1709461212158203,21.71039581298828,21.8813419342041,22.16029167175293,23.33688735961914
1759160903.4067826,1759160903.4079359,60.08005142211914,6.75511360168457,0.17118453979492188,42.66357421875,42.83475875854492,49.623727798461914,50.177812576293945
1759160903.4669504,1759160903.4685988,49.66306686401367,0.03147125244140625,0.17023086547851562,41.22447967529297,41.394710540771484,41.667938232421875,42.69528388977051
1759160903.51749,1759160903.5210807,38.91158103942871,0.11539459228515625,0.17571449279785156,31.82530403137207,32.00101852416992,32.32622146606445,33.325910568237305
1759160903.5577915,1759160903.5634973,46.88596725463867,1.2786388397216797,0.17213821411132812,36.383867263793945,36.55600547790527,37.986040115356445,38.7883186340332
1759160903.6063213,1759160903.6075087,56.92791938781738,5.337953567504883,0.1678466796875,41.27025604248047,41.43810272216797,46.880483627319336,47.495365142822266
1759160903.6637492,1759160903.6657078,27.000904083251953,0.017404556274414062,0.17261505126953125,21.225929260253906,21.398544311523438,21.65508270263672,22.696256637573242
1759160903.69439,1759160903.6957922,31.015396118164062,2.515077590942383,0.17380714416503906,21.23856544494629,21.412372589111328,24.066686630249023,24.860620498657227
1759160903.7255268,1759160903.726971,30.719518661499023,4.181146621704102,0.17523765563964844,21.551847457885742,21.72708511352539,26.01170539855957,26.595354080200195
1759160903.7567315,1759160903.7631543,30.58481216430664,0.7476806640625,0.17070770263671875,21.358013153076172,21.52872085571289,22.452354431152344,23.622989654541016
1759160903.7874086,1759160903.7885377,39.65616226196289,8.152484893798828,0.17023086547851562,21.899938583374023,22.07016944885254,30.252933502197266,30.792236328125
1759160903.828528,1759160903.830064,49.09849166870117,0.030755996704101562,0.17786026000976562,40.30728340148926,40.48514366149902,40.75503349304199,41.870832443237305
1759160903.8778217,1759160903.881835,50.11105537414551,0.01811981201171875,0.1685619354248047,42.19651222229004,42.365074157714844,42.62423515319824,43.70737075805664
1759160903.9330046,1759160903.9347398,36.29779815673828,0.4410743713378906,0.16689300537109375,32.259464263916016,32.42635726928711,33.07342529296875,34.26313400268555
1759160903.9711158,1759160903.9757574,44.596195220947266,3.210783004760742,0.17142295837402344,34.12485122680664,34.296274185180664,37.611961364746094,38.277387619018555
1759160904.0161676,1759160904.0232656,52.91414260864258,1.2841224670410156,0.1685619354248047,41.69034957885742,41.85891151428223,43.320417404174805,44.470787048339844
1759160904.070673,1759160904.0717742,36.70001029968262,5.823850631713867,0.16880035400390625,21.288156509399414,21.45695686340332,27.315378189086914,27.848005294799805
1759160904.1083207,1759160904.1095977,27.785778045654297,0.4475116729736328,0.1952648162841797,21.273374557495117,21.468639373779297,22.125720977783203,23.04387092590332
1759160904.1361928,1759160904.141348,30.048131942749023,1.5058517456054688,0.16808509826660156,21.447420120239258,21.61550521850586,23.266077041625977,24.060726165771484
1759160904.1663258,1759160904.1674695,39.8406982421875,8.344411849975586,0.1690387725830078,21.18825912475586,21.357297897338867,29.735565185546875,30.282974243164062
1759160904.2063088,1759160904.2085435,29.200315475463867,0.035762786865234375,0.18024444580078125,22.382736206054688,22.56298065185547,22.83000946044922,23.912668228149414
1759160904.2362287,1759160904.2383199,57.57951736450195,4.061222076416016,0.1811981201171875,42.0534610748291,42.23465919494629,46.39911651611328,47.16897010803223
1759160904.294612,1759160904.29598,45.59659957885742,0.014066696166992188,0.16951560974121094,41.21685028076172,41.38636589050293,41.64552688598633,42.554378509521484
1759160904.3403306,1759160904.344671,49.268484115600586,3.9603710174560547,0.17142295837402344,33.97178649902344,34.14320945739746,38.20538520812988,38.84458541870117
1759160904.3897414,1759160904.3912451,46.83184623718262,2.5916099548339844,0.16832351684570312,34.091949462890625,34.26027297973633,36.95845603942871,37.55450248718262
1759160904.437189,1759160904.4392257,41.022300720214844,0.03528594970703125,0.18334388732910156,36.05318069458008,36.23652458190918,36.50999069213867,37.73140907287598
1759160904.4782963,1759160904.4796162,34.702301025390625,7.063865661621094,0.1704692840576172,21.275997161865234,21.44646644592285,28.541088104248047,29.16741371154785
1759160904.513143,1759160904.5187001,29.497861862182617,0.05888938903808594,0.16880035400390625,21.201610565185547,21.370410919189453,21.670103073120117,23.114919662475586
1759160904.54731,1759160904.550872,29.035329818725586,0.12183189392089844,0.16951560974121094,21.735668182373047,21.905183792114258,22.232770919799805,23.75936508178711
1759160904.5780916,1759160904.579202,35.23135185241699,4.723548889160156,0.1723766326904297,21.15178108215332,21.32415771484375,26.08466148376465,26.637792587280273
1759160904.6143892,1759160904.6159644,33.05935859680176,0.4925727844238281,0.1671314239501953,21.590471267700195,21.75760269165039,22.461891174316406,23.55337142944336
1759160904.6475687,1759160904.6493475,46.84257507324219,0.017881393432617188,0.2090930938720703,40.50636291503906,40.71545600891113,40.9698486328125,41.89610481262207
1759160904.6945317,1759160904.6987524,55.78327178955078,2.816915512084961,0.17309188842773438,41.191816329956055,41.36490821838379,44.32225227355957,45.22418975830078
1759160904.7509086,1759160904.75242,38.49482536315918,1.7368793487548828,0.17023086547851562,32.0892333984375,32.259464263916016,34.174442291259766,34.99746322631836
1759160904.7909975,1759160904.7970648,45.93515396118164,0.03504753112792969,0.1914501190185547,34.33632850646973,34.52777862548828,34.80243682861328,35.96854209899902
1759160904.8370535,1759160904.8381643,49.202680587768555,4.44483757019043,0.1690387725830078,39.84999656677246,40.01903533935547,44.4943904876709,45.0286865234375
1759160904.889315,1759160904.8913586,27.803897857666016,2.4852752685546875,0.1697540283203125,21.140336990356445,21.310091018676758,23.900747299194336,24.666309356689453
1759160904.9172442,1759160904.9237053,32.434940338134766,2.788543701171875,0.1766681671142578,21.246910095214844,21.4235782623291,24.355411529541016,25.639772415161133
1759160904.9509254,1759160904.952038,36.49020195007324,7.058382034301758,0.16689300537109375,22.07326889038086,22.240161895751953,29.32882308959961,29.873132705688477
1759160904.9875815,1759160904.9886875,34.77191925048828,3.876924514770508,0.1704692840576172,21.564722061157227,21.735191345214844,25.763750076293945,26.522159576416016
1759160905.0229921,1759160905.0254052,30.640125274658203,0.033855438232421875,0.17690658569335938,22.35269546508789,22.52960205078125,22.807836532592773,23.876190185546875
1759160905.0537167,1759160905.0582216,48.061370849609375,0.9369850158691406,0.16927719116210938,40.734052658081055,40.903329849243164,42.014360427856445,42.824745178222656
1759160905.1028883,1759160905.1082788,60.0895881652832,3.0460357666015625,0.179290771484375,42.739152908325195,42.91844367980957,45.996904373168945,46.814680099487305
1759160905.163124,1759160905.1654537,45.51506042480469,0.018596649169921875,0.17070770263671875,41.158437728881836,41.329145431518555,41.58139228820801,42.476654052734375
1759160905.2088113,1759160905.2134314,47.460079193115234,4.870891571044922,0.1842975616455078,34.447431564331055,34.63172912597656,39.53361511230469,40.074825286865234
1759160905.2566514,1759160905.2622674,44.30365562438965,1.589059829711914,0.16999244689941406,31.88467025756836,32.05466270446777,33.75101089477539,34.44218635559082
1759160905.3015256,1759160905.3062725,32.99736976623535,0.8862018585205078,0.19669532775878906,21.251916885375977,21.448612213134766,22.507429122924805,23.445606231689453
1759160905.3346875,1759160905.335787,35.39133071899414,4.330873489379883,0.1697540283203125,21.143674850463867,21.31342887878418,25.75063705444336,26.343345642089844
1759160905.3701994,1759160905.3724506,29.189586639404297,0.017642974853515625,0.16832351684570312,21.892070770263672,22.060394287109375,22.320032119750977,23.177623748779297
1759160905.3995447,1759160905.402991,33.52642059326172,2.910614013671875,0.1678466796875,21.23427391052246,21.40212059020996,24.460315704345703,25.261878967285156
1759160905.4332366,1759160905.4369974,30.06267547607422,1.7342567443847656,0.1780986785888672,21.31032943725586,21.488428115844727,23.407697677612305,24.230003356933594
1759160905.4644134,1759160905.465519,53.05886268615723,5.857229232788086,0.186920166015625,39.942264556884766,40.12918472290039,46.02169990539551,46.56386375427246
1759160905.5182443,1759160905.5193484,50.70137977600098,3.222227096557617,0.1697540283203125,44.266700744628906,44.43645477294922,47.69492149353027,48.24090003967285
1759160905.5693607,1759160905.576219,45.08662223815918,2.1092891693115234,0.17499923706054688,33.21480751037598,33.38980674743652,35.64596176147461,36.57126426696777
1759160905.6165469,1759160905.622793,42.16504096984863,0.017642974853515625,0.1678466796875,32.08279609680176,32.25064277648926,32.50455856323242,33.58602523803711
1759160905.6638618,1759160905.665792,46.49233818054199,0.30159950256347656,0.19598007202148438,39.93368148803711,40.129661560058594,40.705204010009766,41.903018951416016
1759160905.7104487,1759160905.7116349,36.22150421142578,6.419181823730469,0.22745132446289062,21.449804306030273,21.677255630493164,28.20611000061035,28.81622314453125
1759160905.7468123,1759160905.747957,34.59024429321289,2.9370784759521484,0.16999244689941406,21.10910415649414,21.279096603393555,24.321794509887695,24.92833137512207
1759160905.781811,1759160905.7834294,26.69668197631836,0.03218650817871094,0.17023086547851562,21.338462829589844,21.50869369506836,21.782398223876953,22.95064926147461
1759160905.809681,1759160905.8160598,33.69927406311035,0.016450881958007812,0.19788742065429688,21.19135856628418,21.389245986938477,21.642684936523438,22.42112159729004
1759160905.8448157,1759160905.8462143,38.24210166931152,2.293109893798828,0.1728534698486328,32.49359130859375,32.66644477844238,35.132408142089844,35.95757484436035
1759160905.883236,1759160905.8844106,51.13363265991211,8.119583129882812,0.22935867309570312,33.16211700439453,33.391475677490234,41.54706001281738,42.115211486816406
1759160905.9353585,1759160905.9369414,41.080474853515625,0.030755996704101562,0.1926422119140625,30.887126922607422,31.079769134521484,31.34942054748535,32.3483943939209
1759160905.9765244,1759160905.97917,38.64002227783203,0.026226043701171875,0.1723766326904297,31.625747680664062,31.798124313354492,32.05990791320801,33.06913375854492
1759160906.015285,1759160906.0200129,48.957109451293945,2.2690296173095703,0.18334388732910156,33.086538314819336,33.26988220214844,35.68077087402344,36.38744354248047
1759160906.0643876,1759160906.0666125,38.27643394470215,0.01430511474609375,0.1735687255859375,31.305313110351562,31.4788818359375,31.73041343688965,32.87339210510254
1759160906.1039138,1759160906.1090498,39.321184158325195,0.016450881958007812,0.171661376953125,31.47602081298828,31.647682189941406,31.899690628051758,32.94777870178223
1759160906.143648,1759160906.1513846,44.49343681335449,0.5092620849609375,0.1761913299560547,31.375646591186523,31.551837921142578,32.26757049560547,33.29348564147949
1759160906.1900048,1759160906.1911023,40.27700424194336,3.5686492919921875,0.1678466796875,32.22346305847168,32.39130973815918,36.060333251953125,36.65280342102051
1759160906.2303872,1759160906.2315114,41.132450103759766,6.556034088134766,0.17380714416503906,28.28383445739746,28.4576416015625,35.048484802246094,35.593271255493164
1759160906.2736666,1759160906.2750535,29.428482055664062,2.6035308837890625,0.16880035400390625,23.404359817504883,23.57316017150879,26.363849639892578,27.163028717041016
1759160906.3032188,1759160906.3043573,55.0537109375,8.082866668701172,0.16927719116210938,42.463064193725586,42.632341384887695,50.750017166137695,51.291465759277344
1759160906.3595679,1759160906.3657832,45.01605033874512,0.5223751068115234,0.17642974853515625,34.1489315032959,34.325361251831055,35.05206108093262,36.13471984863281
1759160906.4068274,1759160906.410852,39.21175003051758,1.0819435119628906,0.1690387725830078,32.2117805480957,32.38081932067871,33.64992141723633,34.52014923095703
1759160906.4465685,1759160906.451999,57.26218223571777,3.4761428833007812,0.1685619354248047,43.23744773864746,43.406009674072266,46.91290855407715,47.49751091003418
1759160906.5039146,1759160906.5102193,42.66023635864258,0.017642974853515625,0.17786026000976562,32.70125389099121,32.87911415100098,33.13136100769043,34.22236442565918
1759160906.5469358,1759160906.5540812,42.2821044921875,0.017404556274414062,0.19431114196777344,32.22060203552246,32.414913177490234,32.66739845275879,33.98442268371582
1759160906.5897255,1759160906.5976052,32.801151275634766,0.16498565673828125,0.17118453979492188,21.28767967224121,21.458864212036133,21.83818817138672,22.92633056640625
1759160906.6227214,1759160906.6273897,31.86202049255371,2.7937889099121094,0.16736984252929688,21.207571029663086,21.374940872192383,24.269580841064453,25.676488876342773
1759160906.6546652,1759160906.660013,30.99656105041504,2.410411834716797,0.17261505126953125,21.298646926879883,21.471261978149414,23.989439010620117,24.63817596435547
1759160906.6869333,1759160906.692913,33.182382583618164,1.7981529235839844,0.17690658569335938,21.36993408203125,21.54684066772461,23.37956428527832,24.23691749572754
1759160906.7222872,1759160906.7271726,33.232927322387695,0.11897087097167969,0.1838207244873047,22.304296493530273,22.488117218017578,22.815942764282227,23.934364318847656
1759160906.7561486,1759160906.7576752,49.7746467590332,3.3822059631347656,0.17142295837402344,40.6184196472168,40.78984260559082,44.3115234375,45.07160186767578
1759160906.806301,1759160906.812598,54.15701866149902,0.5080699920654297,0.16999244689941406,44.04020309448242,44.210195541381836,44.937849044799805,46.06056213378906
1759160906.8605797,1759160906.8616807,51.058053970336914,6.964683532714844,0.1709461212158203,34.65580940246582,34.82675552368164,41.82553291320801,42.36173629760742
1759160906.9117224,1759160906.9146826,44.442176818847656,0.030994415283203125,0.17309188842773438,33.559560775756836,33.73265266418457,34.00230407714844,34.952402114868164
1759160906.957301,1759160906.9586232,47.68109321594238,1.0921955108642578,0.1671314239501953,36.22913360595703,36.39626502990723,37.67228126525879,38.66982460021973
1759160907.0051076,1759160907.0073566,25.702238082885742,0.021219253540039062,0.17499923706054688,21.294355392456055,21.4693546295166,21.780014038085938,22.718429565429688
1759160907.030931,1759160907.0365784,33.7374210357666,3.5462379455566406,0.16999244689941406,21.218061447143555,21.38805389404297,24.96790885925293,25.529861450195312
1759160907.0659573,1759160907.0723796,31.630992889404297,0.1201629638671875,0.1697540283203125,22.230863571166992,22.400617599487305,22.73106575012207,23.694992065429688
1759160907.0984938,1759160907.1048672,35.27641296386719,1.0919570922851562,0.17213821411132812,21.211862564086914,21.384000778198242,22.626876831054688,23.2696533203125
1759160907.133889,1759160907.1380053,31.41331672668457,0.15020370483398438,0.1766681671142578,23.07868003845215,23.255348205566406,23.613691329956055,24.998188018798828
1759160907.166183,1759160907.1723347,50.86517333984375,0.2512931823730469,0.1697540283203125,39.00289535522461,39.17264938354492,39.627790451049805,40.77625274658203
1759160907.2191424,1759160907.2205489,50.21214485168457,2.3338794708251953,0.16832351684570312,42.56892204284668,42.73724555969238,45.215606689453125,46.074867248535156
1759160907.2730272,1759160907.2744386,50.58646202087402,2.344846725463867,0.17070770263671875,42.30642318725586,42.47713088989258,44.974327087402344,45.71270942687988
1759160907.325855,1759160907.329107,44.185638427734375,1.3921260833740234,0.17070770263671875,33.68210792541504,33.85281562805176,35.39872169494629,36.391496658325195
1759160907.3701837,1759160907.373923,41.99409484863281,1.680135726928711,0.16951560974121094,31.82053565979004,31.99005126953125,33.84971618652344,34.61813926696777
1759160907.4160435,1759160907.41749,31.18729591369629,1.096963882446289,0.17690658569335938,21.390438079833984,21.567344665527344,22.843360900878906,23.78702163696289
1759160907.4478667,1759160907.4491844,28.045177459716797,1.9578933715820312,0.1773834228515625,21.294116973876953,21.471500396728516,23.572921752929688,24.344205856323242
1759160907.4788542,1759160907.4802527,33.0355167388916,3.4537315368652344,0.1704692840576172,21.231651306152344,21.40212059020996,24.994850158691406,25.744199752807617
1759160907.5119767,1759160907.5131414,29.46949005126953,3.1065940856933594,0.1785755157470703,21.332979202270508,21.511554718017578,24.72233772277832,25.333881378173828
1759160907.5450854,1759160907.5465016,30.02142906188965,2.2983551025390625,0.16880035400390625,21.7742919921875,21.943092346191406,24.38497543334961,25.1924991607666
1759160907.57525,1759160907.5818255,50.61650276184082,0.10156631469726562,0.16999244689941406,41.2907600402832,41.46075248718262,41.779518127441406,42.95229911804199
1759160907.6291711,1759160907.6342244,50.20570755004883,0.04887580871582031,0.18739700317382812,42.03295707702637,42.220354080200195,42.508840560913086,43.874502182006836
1759160907.6824694,1759160907.6862648,40.18688201904297,1.7693042755126953,0.1709461212158203,32.2568416595459,32.42778778076172,34.33704376220703,35.10165214538574
1759160907.7228994,1759160907.7280524,45.061349868774414,3.710508346557617,0.16880035400390625,33.02597999572754,33.194780349731445,37.05000877380371,37.74452209472656
1759160907.7709832,1759160907.7723687,51.970720291137695,3.559112548828125,0.19216537475585938,40.94195365905762,41.13411903381348,44.83342170715332,45.588016510009766
1759160907.8252096,1759160907.827253,28.168678283691406,1.0404586791992188,0.17952919006347656,21.223783493041992,21.40331268310547,22.62115478515625,23.357868194580078
1759160907.8557982,1759160907.8573165,33.41388702392578,3.2393932342529297,0.20051002502441406,21.158218383789062,21.358728408813477,24.703264236450195,25.326013565063477
1759160907.890066,1759160907.8929882,28.937578201293945,0.13971328735351562,0.16880035400390625,21.480798721313477,21.649599075317383,21.998882293701172,23.345947265625
1759160907.9215696,1759160907.9229586,28.128862380981445,3.113269805908203,0.17547607421875,21.515607833862305,21.691083908081055,24.979114532470703,25.79808235168457
1759160907.9497864,1759160907.9525614,34.12294387817383,6.547689437866211,0.1704692840576172,21.642208099365234,21.81267738342285,28.39350700378418,29.42514419555664
1759160907.984032,1759160907.989429,51.90229415893555,2.861499786376953,0.17404556274414062,40.02737998962402,40.201425552368164,43.17021369934082,44.14534568786621
1759160908.0371385,1759160908.038243,53.00426483154297,5.338191986083984,0.1747608184814453,42.93990135192871,43.114662170410156,48.48814010620117,49.02362823486328
1759160908.090529,1759160908.0965433,54.73065376281738,1.0101795196533203,0.16832351684570312,41.825294494628906,41.99361801147461,43.10774803161621,44.137001037597656
1759160908.1461816,1759160908.1473136,43.23887825012207,3.5750865936279297,0.171661376953125,33.63680839538574,33.80846977233887,37.528276443481445,38.26022148132324
1759160908.1897016,1759160908.1955106,38.03753852844238,0.5419254302978516,0.17833709716796875,28.908491134643555,29.086828231811523,29.83713150024414,31.222105026245117
1759160908.2294629,1759160908.2305987,31.545639038085938,5.982637405395508,0.16880035400390625,21.222352981567383,21.39115333557129,27.40645408630371,27.95696258544922
1759160908.2628539,1759160908.2688076,30.36189079284668,0.12087821960449219,0.1704692840576172,21.261215209960938,21.431684494018555,21.76690101623535,22.917509078979492
1759160908.2933812,1759160908.3005016,34.53397750854492,1.1625289916992188,0.16880035400390625,22.929668426513672,23.098468780517578,24.453163146972656,26.00264549255371
1759160908.3281126,1759160908.3329692,32.492876052856445,3.1785964965820312,0.17523765563964844,21.39568328857422,21.570920944213867,24.898290634155273,25.778770446777344
1759160908.3644392,1759160908.3658402,31.809329986572266,3.1175613403320312,0.17690658569335938,21.672964096069336,21.849870681762695,25.111913681030273,25.912046432495117
1759160908.397998,1759160908.3991416,53.75194549560547,2.935647964477539,0.16736984252929688,40.410518646240234,40.57788848876953,43.68758201599121,44.53420639038086
1759160908.4521024,1759160908.4541707,51.21493339538574,0.017404556274414062,0.1690387725830078,41.11886024475098,41.287899017333984,41.547298431396484,42.51360893249512
1759160908.5034597,1759160908.5049067,42.8004264831543,1.8355846405029297,0.16927719116210938,33.01811218261719,33.1873893737793,35.199880599975586,35.965681076049805
1759160908.5464404,1759160908.551014,46.32854461669922,0.017881393432617188,0.17118453979492188,33.643245697021484,33.814430236816406,34.070730209350586,35.11166572570801
1759160908.5933928,1759160908.5954876,46.75436019897461,0.3027915954589844,0.1742839813232422,36.95511817932129,37.12940216064453,37.634849548339844,38.99121284484863
1759160908.640292,1759160908.643877,30.577898025512695,0.4756450653076172,0.1780986785888672,21.154165267944336,21.332263946533203,22.011518478393555,22.9339599609375
1759160908.6709933,1759160908.6749222,30.53903579711914,2.05230712890625,0.1690387725830078,21.10743522644043,21.276473999023438,23.516178131103516,24.377107620239258
1759160908.7024999,1759160908.7036052,30.99822998046875,5.728960037231445,0.21409988403320312,22.214651107788086,22.42875099182129,28.189659118652344,28.74302864074707
1759160908.7336218,1759160908.7347505,33.14328193664551,8.291959762573242,0.16808509826660156,21.195173263549805,21.363258361816406,29.689311981201172,30.223608016967773
1759160908.767276,1759160908.7742221,35.112619400024414,1.1563301086425781,0.1811981201171875,22.170305252075195,22.351503372192383,23.64802360534668,24.554014205932617
1759160908.8055673,1759160908.806676,52.703142166137695,1.949310302734375,0.1709461212158203,41.0008430480957,41.17178916931152,43.15543174743652,43.69378089904785
1759160908.8583922,1759160908.860807,48.93064498901367,0.03504753112792969,0.1671314239501953,43.553829193115234,43.72096061706543,43.99871826171875,45.07327079772949
1759160908.9089139,1759160908.9101558,52.29020118713379,5.718231201171875,0.19073486328125,41.237831115722656,41.428565979003906,47.25480079650879,47.86062240600586
1759160908.961705,1759160908.9681,46.759605407714844,0.03910064697265625,0.16999244689941406,34.71946716308594,34.88945960998535,35.16817092895508,36.25988960266113
1759160909.0105417,1759160909.0142334,35.33005714416504,0.15473365783691406,0.18334388732910156,26.782989501953125,26.966333389282227,27.332544326782227,28.606653213500977
1759160909.05017,1759160909.05247,25.67267417907715,0.017881393432617188,0.1685619354248047,21.186113357543945,21.35467529296875,21.60787582397461,22.90177345275879
1759160909.0759764,1759160909.0818758,33.37907791137695,2.966165542602539,0.16880035400390625,21.121501922607422,21.290302276611328,24.289369583129883,25.1617431640625
1759160909.1137066,1759160909.1169224,29.467105865478516,0.15425682067871094,0.1678466796875,22.298574447631836,22.466421127319336,22.830724716186523,24.09982681274414
1759160909.146781,1759160909.1500375,30.07221221923828,0.6668567657470703,0.16760826110839844,21.237850189208984,21.405458450317383,22.251367568969727,23.75054359436035
1759160909.1771455,1759160909.183239,30.96604347229004,0.015974044799804688,0.19979476928710938,22.861719131469727,23.061513900756836,23.319005966186523,24.343013763427734
1759160909.208293,1759160909.2094727,53.76482009887695,8.05807113647461,0.16880035400390625,39.11876678466797,39.287567138671875,47.37687110900879,47.91688919067383
1759160909.262179,1759160909.2658427,57.59167671203613,1.9423961639404297,0.17833709716796875,43.82658004760742,44.00491714477539,46.09274864196777,46.842336654663086
1759160909.3203764,1759160909.322847,39.16001319885254,0.03218650817871094,0.16951560974121094,33.316612243652344,33.486127853393555,33.76030921936035,34.87873077392578
1759160909.360425,1759160909.366934,42.745113372802734,0.4906654357910156,0.16570091247558594,32.09877014160156,32.26447105407715,32.96089172363281,33.95700454711914
1759160909.4057198,1759160909.4068222,52.41584777832031,3.8290023803710938,0.17023086547851562,38.43212127685547,38.602352142333984,42.46973991394043,43.04981231689453
1759160909.4584987,1759160909.4600267,29.60348129272461,0.47326087951660156,0.1690387725830078,21.185874938964844,21.35491371154785,22.03226089477539,23.111343383789062
1759160909.4898238,1759160909.4927723,28.467655181884766,0.49877166748046875,0.1804828643798828,21.260976791381836,21.44145965576172,22.150278091430664,23.328781127929688
1759160909.5213344,1759160909.5233634,33.058881759643555,2.413511276245117,0.16832351684570312,21.23093605041504,21.399259567260742,23.91839027404785,24.6884822845459
1759160909.554813,1759160909.5582204,29.35647964477539,0.16927719116210938,0.17523765563964844,22.476673126220703,22.65191078186035,23.027658462524414,24.189233779907227
1759160909.584255,1759160909.5856884,57.32226371765137,6.629228591918945,0.179290771484375,41.54777526855469,41.72706604003906,48.39015007019043,48.92420768737793
1759160909.6419868,1759160909.6455297,50.476789474487305,0.1652240753173828,0.1742839813232422,41.23377799987793,41.40806198120117,41.78047180175781,42.95992851257324
1759160909.6925898,1759160909.697633,43.92504692077637,0.9586811065673828,0.1780986785888672,34.10601615905762,34.284114837646484,35.4156494140625,36.1170768737793
1759160909.736621,1759160909.7377255,45.35722732543945,6.100893020629883,0.17833709716796875,34.31558609008789,34.49392318725586,40.62962532043457,41.17321968078613
1759160909.7856092,1759160909.7870166,48.82550239562988,2.3190975189208984,0.18525123596191406,38.080453872680664,38.26570510864258,40.729522705078125,41.584014892578125
1759160909.8349066,1759160909.8387165,26.70907974243164,0.11587142944335938,0.17118453979492188,21.245718002319336,21.416902542114258,21.74544334411621,22.90821075439453
1759160909.8622441,1759160909.8692076,33.68401527404785,2.128124237060547,0.18525123596191406,21.596670150756836,21.78192138671875,24.057388305664062,25.01821517944336
1759160909.8979735,1759160909.8995192,34.909963607788086,4.646778106689453,0.19288063049316406,21.261215209960938,21.4540958404541,26.20553970336914,26.811838150024414
1759160909.9330034,1759160909.936743,29.25276756286621,0.2567768096923828,0.17452239990234375,21.395444869995117,21.56996726989746,22.036314010620117,23.415088653564453
1759160909.9642594,1759160909.9681985,31.8758487701416,1.5680789947509766,0.16832351684570312,21.8660831451416,22.034406661987305,23.74744415283203,24.56498146057129
1759160909.9962738,1759160909.9974415,55.45473098754883,5.861043930053711,0.186920166015625,39.74270820617676,39.92962837219238,45.82571983337402,46.391963958740234
1759160910.052803,1759160910.0546246,49.08275604248047,0.016450881958007812,0.16927719116210938,41.8856143951416,42.05489158630371,42.30809211730957,43.33901405334473
1759160910.1029634,1759160910.1075773,50.26054382324219,0.4951953887939453,0.17070770263671875,41.38994216918945,41.56064987182617,42.256832122802734,43.38836669921875
1759160910.1533487,1759160910.1544642,47.777414321899414,6.661176681518555,0.17523765563964844,32.62972831726074,32.80496597290039,39.49689865112305,40.040016174316406
1759160910.2013228,1759160910.2045426,35.0189208984375,0.5598068237304688,0.1666545867919922,27.79412269592285,27.960777282714844,28.697967529296875,29.89649772644043
1759160910.2368226,1759160910.2380037,35.86387634277344,6.119728088378906,0.19240379333496094,21.08597755432129,21.27838134765625,27.433156967163086,27.985095977783203
1759160910.2728815,1759160910.275906,27.437925338745117,0.8301734924316406,0.16641616821289062,21.198749542236328,21.36516571044922,22.405385971069336,23.197412490844727
1759160910.3005464,1759160910.3016584,35.3243350982666,7.435083389282227,0.19502639770507812,21.556615829467773,21.75164222717285,29.221534729003906,29.755830764770508
1759160910.3369846,1759160910.3411393,33.19048881530762,0.9238719940185547,0.16689300537109375,21.218538284301758,21.38543128967285,22.487640380859375,23.234128952026367
1759160910.3703723,1759160910.3743682,31.363725662231445,0.04124641418457031,0.17070770263671875,22.234678268432617,22.405385971069336,22.684812545776367,23.91219139099121
1759160910.403583,1759160910.407973,48.918962478637695,0.03361701965332031,0.16880035400390625,40.27962684631348,40.44842720031738,40.71784019470215,41.75209999084473
1759160910.4526248,1759160910.453761,53.08938026428223,5.905628204345703,0.16832351684570312,43.15543174743652,43.32375526428223,49.26252365112305,49.82900619506836
1759160910.50607,1759160910.5130715,50.23670196533203,1.0898113250732422,0.17523765563964844,38.60592842102051,38.781166076660156,40.04955291748047,40.92669486999512
1759160910.5566883,1759160910.563281,43.924808502197266,0.7300376892089844,0.19240379333496094,34.17229652404785,34.36470031738281,35.279035568237305,36.36336326599121
1759160910.6008656,1759160910.607733,44.04926300048828,1.9164085388183594,0.17309188842773438,30.75861930847168,30.931711196899414,33.02741050720215,34.22737121582031
1759160910.6463883,1759160910.6484354,31.677722930908203,3.3118724822998047,0.17833709716796875,21.214723587036133,21.3930606842041,24.810314178466797,25.5887508392334
1759160910.6795058,1759160910.68422,32.20200538635254,0.01811981201171875,0.17309188842773438,21.088123321533203,21.261215209960938,21.518230438232422,22.556781768798828
1759160910.711835,1759160910.7132902,34.04045104980469,3.486156463623047,0.16689300537109375,21.340608596801758,21.50750160217285,25.14338493347168,25.919675827026367
1759160910.7459605,1759160910.7472622,28.761863708496094,2.3491382598876953,0.1690387725830078,21.29387855529785,21.46291732788086,23.9565372467041,24.824857711791992
1759160910.778382,1759160910.7798219,32.462358474731445,2.242565155029297,0.22721290588378906,22.625446319580078,22.852659225463867,25.236845016479492,26.145219802856445
1759160910.811529,1759160910.8161185,50.65202713012695,0.12326240539550781,0.18167495727539062,41.472673416137695,41.654348373413086,41.98813438415527,43.00212860107422
1759160910.8623226,1759160910.8634622,56.80966377258301,5.715608596801758,0.16999244689941406,41.412353515625,41.582345962524414,47.33419418334961,47.88637161254883
1759160910.9192193,1759160910.920321,44.42620277404785,1.188039779663086,0.17213821411132812,35.45570373535156,35.62784194946289,37.027597427368164,37.79435157775879
1759160910.9638119,1759160910.9684289,39.54601287841797,0.018358230590820312,0.17690658569335938,31.362295150756836,31.539201736450195,31.830787658691406,32.96351432800293
1759160911.0034728,1759160911.010322,52.094459533691406,0.640869140625,0.16808509826660156,39.90888595581055,40.07697105407715,40.86494445800781,42.0076847076416
1759160911.0556896,1759160911.05684,31.145095825195312,5.239963531494141,0.19669532775878906,21.19731903076172,21.394014358520508,26.669025421142578,27.226686477661133
1759160911.0902905,1759160911.0918818,31.803607940673828,3.077268600463867,0.1709461212158203,21.306753158569336,21.477699279785156,24.69921112060547,25.369882583618164
1759160911.1222181,1759160911.1233792,33.849477767944336,4.492044448852539,0.1766681671142578,21.285057067871094,21.46172523498535,26.066064834594727,26.666879653930664
1759160911.1569147,1759160911.160478,28.385162353515625,0.5018711090087891,0.17118453979492188,21.261930465698242,21.433115005493164,22.14193344116211,23.253440856933594
1759160911.1869879,1759160911.1928706,30.269622802734375,0.5052089691162109,0.1766681671142578,21.413803100585938,21.590471267700195,22.305727005004883,23.42510223388672
1759160911.2184758,1759160911.2195735,54.81529235839844,6.50334358215332,0.16927719116210938,41.008710861206055,41.177988052368164,47.716617584228516,48.27070236206055
1759160911.2744741,1759160911.2755737,51.731109619140625,2.8655529022216797,0.17380714416503906,40.56119918823242,40.73500633239746,43.78175735473633,44.62862014770508
1759160911.329136,1759160911.330265,38.27333450317383,0.017881393432617188,0.1857280731201172,33.28990936279297,33.475637435913086,33.73432159423828,34.82961654663086
1759160911.3711338,1759160911.3731718,39.16764259338379,1.6584396362304688,0.1742839813232422,32.34052658081055,32.51481056213379,34.281253814697266,35.0499153137207
1759160911.4103813,1759160911.4115317,57.847023010253906,6.969690322875977,0.17499923706054688,40.643930435180664,40.81892967224121,47.82438278198242,48.38848114013672
1759160911.4692655,1759160911.4705684,25.437355041503906,0.014781951904296875,0.16951560974121094,21.173715591430664,21.343231201171875,21.59404754638672,22.794246673583984
1759160911.4949126,1759160911.502657,31.50629997253418,0.5414485931396484,0.16760826110839844,21.1489200592041,21.3165283203125,22.0639705657959,22.9494571685791
1759160911.526544,1759160911.531017,37.99080848693848,4.732370376586914,0.16951560974121094,21.57115936279297,21.74067497253418,26.507854461669922,27.04453468322754
1759160911.5651066,1759160911.5664299,31.313657760620117,1.9049644470214844,0.17714500427246094,21.332740783691406,21.509885787963867,23.558378219604492,24.205684661865234
1759160911.5966387,1759160911.598193,34.26408767700195,2.980947494506836,0.1704692840576172,21.205425262451172,21.37589454650879,24.50084686279297,25.377511978149414
1759160911.6310713,1759160911.632177,138.8094425201416,112.38622665405273,0.18024444580078125,22.51458168029785,22.694826126098633,135.6058120727539,136.35659217834473
1759160911.7716024,1759160911.774847,29.199838638305664,0.03552436828613281,0.19049644470214844,22.303342819213867,22.493839263916016,22.780179977416992,23.830652236938477
1759160911.8019342,1759160911.8089464,44.275760650634766,0.9131431579589844,0.17690658569335938,33.35309028625488,33.52999687194824,34.592628479003906,35.634756088256836
1759160911.848654,1759160911.8499389,54.53300476074219,5.29170036315918,0.1888275146484375,42.313575744628906,42.502403259277344,47.89614677429199,48.50172996520996
1759160911.9033089,1759160911.9044347,42.68646240234375,5.076408386230469,0.17118453979492188,33.07008743286133,33.24127197265625,38.35248947143555,38.89131546020508
1759160911.948518,1759160911.9496279,47.09148406982422,4.246234893798828,0.1697540283203125,33.806800842285156,33.97655487060547,38.25640678405762,38.796424865722656
1759160911.9960697,1759160911.9992957,43.315887451171875,0.0171661376953125,0.17833709716796875,37.31203079223633,37.4903678894043,37.741661071777344,38.820743560791016
1759160912.0396025,1759160912.0451803,32.5927734375,2.886533737182617,0.16999244689941406,21.288394927978516,21.45838737487793,24.446487426757812,25.26259422302246
1759160912.0725572,1759160912.0796387,31.946897506713867,0.7688999176025391,0.17118453979492188,21.307706832885742,21.478891372680664,22.34792709350586,23.501873016357422
1759160912.107736,1759160912.1092334,30.347585678100586,3.946542739868164,0.16951560974121094,21.33011817932129,21.4996337890625,25.551557540893555,26.137113571166992
1759160912.1400697,1759160912.1411886,36.43298149108887,4.600048065185547,0.16880035400390625,21.243572235107422,21.412372589111328,26.042699813842773,26.582956314086914
1759160912.176624,1759160912.1784177,26.964902877807617,0.018358230590820312,0.17070770263671875,21.460294723510742,21.63100242614746,21.88563346862793,22.945642471313477
1759160912.2051764,1759160912.2068107,54.526567459106445,4.336833953857422,0.17642974853515625,40.32015800476074,40.4965877532959,44.939517974853516,45.533180236816406
1759160912.2599041,1759160912.2624235,49.964189529418945,0.05936622619628906,0.1697540283203125,43.715715408325195,43.88546943664551,44.185638427734375,45.77064514160156
1759160912.3129027,1759160912.3142993,55.28903007507324,3.2472610473632812,0.1723766326904297,42.11831092834473,42.290687561035156,45.67837715148926,46.4169979095459
1759160912.3683136,1759160912.3709776,43.03097724914551,0.0152587890625,0.16808509826660156,33.02574157714844,33.19382667541504,33.451080322265625,34.38377380371094
1759160912.4119737,1759160912.415116,37.125587463378906,0.2624988555908203,0.18024444580078125,30.773401260375977,30.953645706176758,31.424999237060547,33.445119857788086
1759160912.4504707,1759160912.4566145,34.310340881347656,0.9081363677978516,0.16999244689941406,21.320819854736328,21.490812301635742,22.54486083984375,23.659467697143555
1759160912.4854202,1759160912.487661,29.61254119873047,2.3772716522216797,0.17523765563964844,21.249771118164062,21.42500877380371,23.9412784576416,24.849414825439453
1759160912.5180538,1759160912.5201154,34.66296195983887,2.4497509002685547,0.1690387725830078,21.205902099609375,21.374940872192383,23.92864227294922,24.688005447387695
1759160912.5533276,1759160912.5548983,29.329299926757812,0.031232833862304688,0.1957416534423828,21.134376525878906,21.33011817932129,21.607160568237305,22.57061004638672
1759160912.5830686,1759160912.5841892,51.13482475280762,3.3364295959472656,0.17023086547851562,38.3450984954834,38.515329360961914,41.88227653503418,42.41204261779785
1759160912.6351821,1759160912.636758,43.4112548828125,0.49877166748046875,0.17952919006347656,33.41078758239746,33.59031677246094,34.29532051086426,35.33530235290527
1759160912.678804,1759160912.6817534,42.13142395019531,0.4608631134033203,0.171661376953125,34.044504165649414,34.21616554260254,34.87825393676758,35.794734954833984
1759160912.7211328,1759160912.7254457,49.503326416015625,2.5429725646972656,0.1690387725830078,37.72735595703125,37.89639472961426,40.61412811279297,41.44024848937988
1759160912.7707596,1759160912.7719042,57.1589469909668,5.424737930297852,0.18262863159179688,42.48404502868652,42.66667366027832,48.193931579589844,48.813581466674805
1759160912.8286667,1759160912.830064,27.321815490722656,1.0728836059570312,0.17023086547851562,21.288394927978516,21.45862579345703,22.708892822265625,23.64325523376465
1759160912.8564541,1759160912.8634818,32.906532287597656,0.016450881958007812,0.17023086547851562,21.305561065673828,21.475791931152344,21.7287540435791,22.736072540283203
1759160912.8922791,1759160912.8943565,28.501510620117188,1.6417503356933594,0.19431114196777344,21.0568904876709,21.251201629638672,22.993087768554688,23.7581729888916
1759160912.920905,1759160912.927936,30.699968338012695,0.047206878662109375,0.16951560974121094,21.220922470092773,21.390438079833984,21.681785583496094,22.77374267578125
1759160912.952563,1759160912.9592555,34.525394439697266,1.3589859008789062,0.1678466796875,23.184537887573242,23.352384567260742,24.85060691833496,25.61807632446289
1759160912.9885085,1759160912.9896128,56.076765060424805,5.249261856079102,0.17023086547851562,40.63153266906738,40.8017635345459,46.08726501464844,46.63991928100586
1759160913.0452359,1759160913.0468147,48.53534698486328,0.030755996704101562,0.171661376953125,43.28203201293945,43.45369338989258,43.726444244384766,44.88182067871094
1759160913.0941384,1759160913.1012285,43.57767105102539,0.015735626220703125,0.1747608184814453,32.81688690185547,32.991647720336914,33.246517181396484,34.26671028137207
1759160913.1380653,1759160913.1451583,47.50418663024902,0.015974044799804688,0.17023086547851562,34.53183174133301,34.70206260681152,34.95287895202637,35.924673080444336
1759160913.185695,1759160913.1902182,49.56197738647461,0.9114742279052734,0.17213821411132812,41.85295104980469,42.025089263916016,43.10870170593262,44.610023498535156
1759160913.236793,1759160913.2427695,30.46131134033203,1.3439655303955078,0.2129077911376953,21.111011505126953,21.32391929626465,22.80902862548828,23.461103439331055
1759160913.267684,1759160913.2748263,33.79464149475098,1.6887187957763672,0.16927719116210938,21.199703216552734,21.368980407714844,23.233652114868164,24.06024932861328
1759160913.3040779,1759160913.3051865,31.095027923583984,3.7784576416015625,0.17142295837402344,21.578550338745117,21.74997329711914,25.563478469848633,26.093482971191406
1759160913.3364775,1759160913.3417513,29.832124710083008,0.015974044799804688,0.16927719116210938,21.296262741088867,21.465539932250977,21.725177764892578,22.648334503173828
1759160913.371365,1759160913.3740215,33.50377082824707,0.27632713317871094,0.20766258239746094,23.060321807861328,23.26798439025879,23.74887466430664,24.62005615234375
1759160913.40548,1759160913.4087,42.78135299682617,0.2560615539550781,0.16808509826660156,37.51540184020996,37.68348693847656,38.14244270324707,39.54672813415527
1759160913.449111,1759160913.4564676,56.092023849487305,1.316070556640625,0.1666545867919922,42.77515411376953,42.94180870056152,44.399261474609375,46.111106872558594
1759160913.5094697,1759160913.5111527,38.899898529052734,0.5235671997070312,0.17023086547851562,34.581899642944336,34.75213050842285,35.48097610473633,36.56268119812012
1759160913.5485168,1759160913.550908,50.22835731506348,6.729364395141602,0.17213821411132812,36.93222999572754,37.10436820983887,43.90215873718262,44.5859432220459
1759160913.6018484,1759160913.6059678,43.70260238647461,0.5049705505371094,0.1857280731201172,32.396554946899414,32.58228302001953,33.29324722290039,34.29722785949707
1759160913.6464825,1759160913.6475954,29.938936233520508,2.686738967895508,0.1838207244873047,21.241188049316406,21.42500877380371,24.249553680419922,24.990558624267578
1759160913.676757,1759160913.6822264,29.770374298095703,0.3962516784667969,0.1709461212158203,21.155595779418945,21.326541900634766,21.93737030029297,23.604631423950195
1759160913.7090132,1759160913.7101111,31.436681747436523,5.107879638671875,0.1685619354248047,21.737098693847656,21.90566062927246,27.04763412475586,27.588605880737305
1759160913.7422788,1759160913.7433841,32.09328651428223,4.810333251953125,0.19407272338867188,21.195411682128906,21.389484405517578,26.230573654174805,26.759624481201172
1759160913.7744634,1759160913.7759452,36.33284568786621,4.656314849853516,0.1723766326904297,22.704601287841797,22.876977920532227,27.672767639160156,28.443574905395508
1759160913.8130898,1759160913.8146894,48.02751541137695,0.031232833862304688,0.1709461212158203,41.25785827636719,41.42880439758301,41.69583320617676,42.85097122192383
1759160913.8641236,1759160913.8661087,47.4700927734375,1.180887222290039,0.23794174194335938,40.78793525695801,41.02587699890137,42.35577583312988,43.250083923339844
1759160913.9117076,1759160913.9176755,47.12247848510742,2.051115036010742,0.17070770263671875,34.247636795043945,34.418344497680664,36.643266677856445,37.711143493652344
1759160913.9589498,1759160913.9635003,42.557716369628906,2.0117759704589844,0.16808509826660156,32.94730186462402,33.115386962890625,35.302162170410156,36.16666793823242
1759160914.0039418,1759160914.0053334,53.41672897338867,4.537820816040039,0.17070770263671875,38.41280937194824,38.58351707458496,43.26272010803223,44.07930374145508
1759160914.0580359,1759160914.0596662,28.894424438476562,0.031232833862304688,0.1742839813232422,21.15321159362793,21.327495574951172,21.589279174804688,22.492647171020508
1759160914.0870137,1759160914.088189,33.791542053222656,4.020214080810547,0.1685619354248047,21.292924880981445,21.46148681640625,25.58279037475586,26.174306869506836
1759160914.1212423,1759160914.1225362,30.432701110839844,2.3636817932128906,0.1697540283203125,21.289825439453125,21.459579467773438,24.007320404052734,24.962425231933594
1759160914.154098,1759160914.155209,32.81855583190918,1.8727779388427734,0.17213821411132812,21.111249923706055,21.283388137817383,23.193359375,23.726224899291992
1759160914.1870394,1759160914.1897545,28.052330017089844,0.03528594970703125,0.1697540283203125,22.205114364624023,22.374868392944336,22.637128829956055,23.596525192260742
1759160914.215278,1759160914.219592,55.59897422790527,3.9243698120117188,0.16808509826660156,42.44065284729004,42.60873794555664,46.636343002319336,47.30701446533203
1759160914.2710924,1759160914.2722452,55.82141876220703,4.992246627807617,0.20599365234375,41.541337966918945,41.747331619262695,46.77462577819824,47.31583595275879
1759160914.327,1759160914.328163,44.88563537597656,2.1109580993652344,0.18095970153808594,32.0432186126709,32.224178314208984,34.440040588378906,35.06064414978027
1759160914.3720095,1759160914.3737838,38.143157958984375,0.016450881958007812,0.1728534698486328,33.33735466003418,33.51020812988281,33.77056121826172,34.54709053039551
1759160914.4102778,1759160914.4114223,54.60643768310547,6.828784942626953,0.20885467529296875,38.89894485473633,39.1077995300293,45.967817306518555,46.5083122253418
1759160914.4669392,1759160914.4686997,26.125192642211914,0.017881393432617188,0.16951560974121094,21.204471588134766,21.373987197875977,21.62766456604004,22.675275802612305
1759160914.494422,1759160914.501128,30.524253845214844,0.016927719116210938,0.19311904907226562,21.113157272338867,21.306276321411133,21.557331085205078,22.792816162109375
1759160914.5266943,1759160914.528797,37.140846252441406,4.682064056396484,0.1697540283203125,21.33965492248535,21.509408950805664,26.2908935546875,27.072668075561523
1759160914.5645967,1759160914.5661502,26.520729064941406,0.030755996704101562,0.16999244689941406,21.161556243896484,21.3315486907959,21.596670150756836,22.730350494384766
1759160914.591201,1759160914.5983326,34.63101387023926,0.5207061767578125,0.17070770263671875,23.254871368408203,23.425579071044922,24.158954620361328,25.121212005615234
1759160914.6288242,1759160914.630857,52.05869674682617,2.3908615112304688,0.1995563507080078,38.50603103637695,38.70558738708496,41.1982536315918,41.97525978088379
1759160914.6812592,1759160914.683548,51.999807357788086,0.017404556274414062,0.17142295837402344,42.589426040649414,42.76084899902344,43.06483268737793,44.10552978515625
1759160914.7339442,1759160914.7353032,54.1386604309082,3.810405731201172,0.1742839813232422,39.33262825012207,39.50691223144531,43.46466064453125,44.27814483642578
1759160914.7881737,1759160914.7905483,41.449546813964844,0.015735626220703125,0.1766681671142578,32.73749351501465,32.914161682128906,33.16068649291992,33.94818305969238
1759160914.829748,1759160914.8309076,39.26420211791992,3.9696693420410156,0.1747608184814453,26.62372589111328,26.798486709594727,30.87019920349121,31.467914581298828
1759160914.8691816,1759160914.8728771,27.149677276611328,0.0362396240234375,0.17571449279785156,21.341800689697266,21.517515182495117,21.78788185119629,22.835254669189453
1759160914.8965144,1759160914.9021993,34.59811210632324,3.2720565795898438,0.1678466796875,21.17466926574707,21.34251594543457,24.645328521728516,25.194406509399414
1759160914.931201,1759160914.932532,34.24572944641113,5.522727966308594,0.1671314239501953,21.250247955322266,21.41737937927246,27.045249938964844,27.65035629272461
1759160914.9656153,1759160914.9667265,34.33346748352051,3.9489269256591797,0.17642974853515625,21.121740341186523,21.29817008972168,25.3908634185791,26.036739349365234
1759160915.0007155,1759160915.0031142,49.71480369567871,0.017642974853515625,0.17642974853515625,43.45369338989258,43.630123138427734,43.88570785522461,44.94524002075195
1759160915.055564,1759160915.0578063,52.34980583190918,0.0171661376953125,0.16927719116210938,46.91815376281738,47.08743095397949,47.34230041503906,48.55060577392578
1759160915.1080818,1759160915.1140976,54.18133735656738,2.178668975830078,0.1804828643798828,37.018775939941406,37.19925880432129,39.51549530029297,40.29059410095215
1759160915.162415,1759160915.1646926,37.89830207824707,0.016450881958007812,0.16999244689941406,33.49947929382324,33.669471740722656,33.928871154785156,34.80958938598633
1759160915.2004573,1759160915.2042093,41.54682159423828,5.71894645690918,0.17142295837402344,28.90157699584961,29.072999954223633,34.82341766357422,35.6898307800293
1759160915.2460172,1759160915.2488089,31.473636627197266,1.0972023010253906,0.19502639770507812,21.288394927978516,21.483421325683594,22.758960723876953,23.55480194091797
1759160915.2776132,1759160915.2806494,32.64188766479492,1.9960403442382812,0.17261505126953125,21.18825912475586,21.36087417602539,23.5288143157959,24.271249771118164
1759160915.3104327,1759160915.3146293,29.2966365814209,0.13065338134765625,0.16951560974121094,21.47197723388672,21.64149284362793,21.979093551635742,23.47540855407715
1759160915.343442,1759160915.3449464,28.0153751373291,2.473115921020508,0.17023086547851562,21.271944046020508,21.442174911499023,24.015188217163086,24.598360061645508
1759160915.3718083,1759160915.3787766,38.015127182006836,0.7290840148925781,0.1704692840576172,21.465539932250977,21.636009216308594,22.47023582458496,23.564815521240234
1759160915.409948,1759160915.4120245,48.01750183105469,0.2009868621826172,0.21219253540039062,40.84467887878418,41.05687141418457,41.43834114074707,42.51289367675781
1759160915.4581342,1759160915.4641273,52.092552185058594,0.4954338073730469,0.1671314239501953,41.428327560424805,41.595458984375,42.32597351074219,43.43676567077637
1759160915.5107932,1759160915.5174377,44.0526008605957,0.019550323486328125,0.16999244689941406,34.87658500671387,35.04657745361328,35.303354263305664,36.18907928466797
1759160915.5576756,1759160915.5587728,42.77515411376953,4.831075668334961,0.16808509826660156,34.020185470581055,34.188270568847656,39.05034065246582,39.58415985107422
1759160915.6008134,1759160915.6059408,53.29084396362305,2.7251243591308594,0.1685619354248047,38.210391998291016,38.37895393371582,41.14031791687012,41.68057441711426
1759160915.6547515,1759160915.6563053,28.27930450439453,2.1839141845703125,0.17189979553222656,21.189212799072266,21.361112594604492,23.688316345214844,24.448156356811523
1759160915.6843047,1759160915.690935,31.13555908203125,0.05125999450683594,0.1728534698486328,21.224498748779297,21.39735221862793,21.689414978027344,22.972583770751953
1759160915.7175198,1759160915.7195654,34.688472747802734,4.076242446899414,0.1709461212158203,21.1336612701416,21.304607391357422,25.4824161529541,26.251792907714844
1759160915.7523243,1759160915.7534363,33.61988067626953,2.6857852935791016,0.17142295837402344,21.120309829711914,21.291732788085938,24.116039276123047,24.875879287719727
1759160915.7866592,1759160915.788455,27.37879753112793,0.043392181396484375,0.17333030700683594,21.134138107299805,21.30746841430664,21.587610244750977,22.80282974243164
1759160915.8141432,1759160915.8208394,42.3583984375,0.14090538024902344,0.17142295837402344,32.807111740112305,32.97853469848633,33.32328796386719,34.870147705078125
1759160915.8582172,1759160915.864014,41.59975051879883,1.119375228881836,0.17333030700683594,31.774044036865234,31.94737434387207,33.24389457702637,34.08622741699219
1759160915.8999434,1759160915.9061456,43.99681091308594,2.460479736328125,0.16927719116210938,30.892610549926758,31.061887741088867,33.66827964782715,34.60073471069336
1759160915.9440618,1759160915.9500308,41.07165336608887,0.5826950073242188,0.1709461212158203,31.20589256286621,31.37683868408203,32.131195068359375,33.3712100982666
1759160915.9853156,1759160915.9920497,41.520118713378906,0.9043216705322266,0.17142295837402344,31.390666961669922,31.562089920043945,32.640933990478516,33.47063064575195
1759160916.0272384,1759160916.0339477,41.68891906738281,1.954793930053711,0.16832351684570312,30.966758728027344,31.135082244873047,33.270835876464844,34.102439880371094
1759160916.0691073,1759160916.0754428,45.00412940979004,2.7642250061035156,0.171661376953125,31.50486946105957,31.676530838012695,34.54184532165527,35.199880599975586
1759160916.1142771,1759160916.120873,43.42508316040039,0.12278556823730469,0.1747608184814453,32.145023345947266,32.31978416442871,32.66143798828125,33.94484519958496
1759160916.1585808,1759160916.1627078,49.581289291381836,5.587339401245117,0.17595291137695312,35.685062408447266,35.86101531982422,41.5952205657959,42.24705696105957
1759160916.2082496,1759160916.221542,45.84050178527832,1.598358154296875,0.1690387725830078,27.74786949157715,27.916908264160156,29.662132263183594,31.303882598876953
1759160916.2541811,1759160916.2671196,50.12702941894531,1.5497207641601562,0.18358230590820312,29.882431030273438,30.06601333618164,31.757354736328125,32.520294189453125
1759160916.3044107,1759160916.3090913,55.892229080200195,0.8988380432128906,0.17023086547851562,42.021989822387695,42.19222068786621,43.26510429382324,44.18444633483887
1759160916.3606925,1759160916.363605,40.54379463195801,0.016689300537109375,0.1747608184814453,33.31112861633301,33.48588943481445,33.739328384399414,34.76524353027344
1759160916.4013376,1759160916.4025426,45.11404037475586,5.8956146240234375,0.16999244689941406,33.39338302612305,33.56337547302246,39.48974609375,40.04788398742676
1759160916.4465728,1759160916.451232,45.8524227142334,2.131223678588867,0.19860267639160156,34.05165672302246,34.25025939941406,36.52524948120117,37.255287170410156
1759160916.4933162,1759160916.4944582,33.91289710998535,4.224061965942383,0.17142295837402344,21.20494842529297,21.376371383666992,25.6345272064209,26.17645263671875
1759160916.5274096,1759160916.531124,28.6867618560791,0.017881393432617188,0.16927719116210938,21.27552032470703,21.44479751586914,21.699905395507812,22.777080535888672
1759160916.5580242,1759160916.559127,35.03108024597168,4.506826400756836,0.17142295837402344,21.175384521484375,21.3468074798584,25.88367462158203,26.42083168029785
1759160916.5941384,1759160916.5956874,27.9233455657959,0.46539306640625,0.1728534698486328,21.302461624145508,21.47531509399414,22.150039672851562,23.218631744384766
1759160916.626418,1759160916.6283498,32.95469284057617,0.28824806213378906,0.1761913299560547,23.266315460205078,23.442506790161133,23.93960952758789,24.86133575439453
1759160916.6600091,1759160916.6633327,45.9744930267334,0.14162063598632812,0.16927719116210938,39.231061935424805,39.400339126586914,39.748430252075195,40.80009460449219
1759160916.7060688,1759160916.7121918,54.96501922607422,1.8346309661865234,0.16999244689941406,43.65110397338867,43.821096420288086,45.801639556884766,46.99420928955078
1759160916.7611158,1759160916.7683399,54.14223670959473,0.4940032958984375,0.17070770263671875,41.60881042480469,41.779518127441406,42.47713088989258,43.367624282836914
1759160916.815382,1759160916.8165443,44.0366268157959,5.41234016418457,0.1704692840576172,34.46602821350098,34.636497497558594,40.15398025512695,40.78102111816406
1759160916.860753,1759160916.865786,42.360782623291016,1.5518665313720703,0.17714500427246094,27.733802795410156,27.910947799682617,29.493093490600586,30.36046028137207
1759160916.9033124,1759160916.9058156,28.413772583007812,0.05936622619628906,0.16927719116210938,21.171092987060547,21.340370178222656,21.64769172668457,23.216962814331055
1759160916.935964,1759160916.9376485,25.497913360595703,0.4954338073730469,0.1697540283203125,21.172761917114258,21.34251594543457,22.04442024230957,23.187875747680664
1759160916.9615855,1759160916.9652803,38.28549385070801,5.505561828613281,0.1697540283203125,21.243810653686523,21.413564682006836,27.02474594116211,27.637958526611328
1759160916.9999938,1759160917.0030875,30.974149703979492,0.48160552978515625,0.16951560974121094,22.631168365478516,22.800683975219727,23.499727249145508,24.42479133605957
1759160917.0311584,1759160917.0357351,50.308942794799805,1.7206668853759766,0.1697540283203125,41.94068908691406,42.110443115234375,44.01135444641113,44.77381706237793
1759160917.0815904,1759160917.0832107,54.60476875305176,7.617473602294922,0.16880035400390625,41.49794578552246,41.66674613952637,49.31473731994629,50.3382682800293
1759160917.1397843,1759160917.1411803,41.95690155029297,2.315521240234375,0.16880035400390625,33.30206871032715,33.470869064331055,35.926103591918945,36.75031661987305
1759160917.1820116,1759160917.1879792,43.54119300842285,0.05078315734863281,0.1957416534423828,32.96184539794922,33.1575870513916,33.4477424621582,34.594058990478516
1759160917.2310326,1759160917.2321615,43.53022575378418,0.017642974853515625,0.17642974853515625,38.67745399475098,38.85388374328613,39.106130599975586,40.191650390625
1759160917.276429,1759160917.282073,30.03072738647461,0.016689300537109375,0.1933574676513672,21.16084098815918,21.354198455810547,21.60334587097168,22.799015045166016
1759160917.306955,1759160917.3135068,35.26878356933594,1.1143684387207031,0.1690387725830078,21.157264709472656,21.326303482055664,22.61519432067871,23.543119430541992
1759160917.3445792,1759160917.3470037,29.128074645996094,0.1220703125,0.19121170043945312,21.133899688720703,21.325111389160156,21.654605865478516,23.633718490600586
1759160917.3737922,1759160917.379194,32.5169563293457,0.5464553833007812,0.16760826110839844,21.2249755859375,21.3925838470459,22.150754928588867,23.02861213684082
1759160917.4064372,1759160917.4075644,34.0268611907959,4.855632781982422,0.16999244689941406,21.49367332458496,21.663665771484375,26.5500545501709,27.124643325805664
1759160917.440585,1759160917.4452896,49.55101013183594,0.0171661376953125,0.18262863159179688,41.27979278564453,41.46242141723633,41.7172908782959,42.80877113342285
1759160917.4920437,1759160917.493153,56.57315254211426,4.569292068481445,0.17380714416503906,44.053077697753906,44.226884841918945,48.828840255737305,49.3769645690918
1759160917.5492766,1759160917.5507936,47.69468307495117,2.1331310272216797,0.179290771484375,38.902997970581055,39.08228874206543,41.361093521118164,42.09780693054199
1759160917.5990233,1759160917.60088,43.26200485229492,2.106904983520508,0.1690387725830078,33.80107879638672,33.97011756896973,36.21649742126465,37.03141212463379
1759160917.6424198,1759160917.64571,43.81370544433594,2.5229454040527344,0.17523765563964844,30.65347671508789,30.82871437072754,33.49423408508301,34.24477577209473
1759160917.6863542,1759160917.6903183,27.701377868652344,0.17976760864257812,0.1697540283203125,21.314382553100586,21.4841365814209,21.871566772460938,23.09727668762207
1759160917.7142143,1759160917.7203586,33.45370292663574,3.1824111938476562,0.16999244689941406,21.167755126953125,21.33774757385254,24.622440338134766,25.383710861206055
1759160917.7479377,1759160917.7557719,33.844709396362305,0.21958351135253906,0.17023086547851562,21.411657333374023,21.58188819885254,21.979570388793945,23.23293685913086
1759160917.7827272,1759160917.7871718,32.794952392578125,1.4157295227050781,0.16999244689941406,23.247718811035156,23.41771125793457,24.977684020996094,25.78425407409668
1759160917.817947,1759160917.819051,49.10683631896973,3.813028335571289,0.1704692840576172,41.97430610656738,42.144775390625,45.99142074584961,46.534061431884766
1759160917.86752,1759160917.8727994,53.55381965637207,3.4742355346679688,0.19097328186035156,41.3355827331543,41.52655601501465,45.035600662231445,45.61924934387207
1759160917.9234738,1759160917.9274714,44.9984073638916,1.4863014221191406,0.17118453979492188,33.81776809692383,33.98895263671875,35.61592102050781,36.41939163208008
1759160917.9686487,1759160917.9738579,44.21806335449219,0.13065338134765625,0.17714500427246094,33.37836265563965,33.55550765991211,33.892154693603516,35.3543758392334
1759160918.014955,1759160918.016452,48.19369316101074,2.09808349609375,0.17118453979492188,37.28127479553223,37.45245933532715,39.694786071777344,40.34876823425293
1759160918.0632682,1759160918.0670836,28.977632522583008,0.017642974853515625,0.17118453979492188,21.255970001220703,21.427154541015625,21.68560028076172,22.77064323425293
1759160918.0926569,1759160918.0992026,30.197858810424805,0.4534721374511719,0.1704692840576172,21.1179256439209,21.288394927978516,21.946191787719727,22.889375686645508
1759160918.1230397,1759160918.1241546,39.37792778015137,8.059978485107422,0.17118453979492188,21.25692367553711,21.42810821533203,29.523134231567383,30.057191848754883
1759160918.1630123,1759160918.1649785,29.02078628540039,0.014066696166992188,0.17070770263671875,21.302223205566406,21.472930908203125,21.72374725341797,22.6895809173584
1759160918.1922007,1759160918.197593,33.086299896240234,0.0171661376953125,0.17118453979492188,23.025989532470703,23.197174072265625,23.449182510375977,24.514436721801758
1759160918.2265384,1759160918.2318466,51.759958267211914,0.034809112548828125,0.17213821411132812,41.3973331451416,41.56947135925293,41.84150695800781,44.11911964416504
1759160918.279171,1759160918.2802606,49.52669143676758,4.250764846801758,0.17070770263671875,40.43221473693848,40.602922439575195,44.95501518249512,45.54486274719238
1759160918.3312461,1759160918.3323884,41.08238220214844,3.6873817443847656,0.2467632293701172,33.27131271362305,33.518075942993164,37.23931312561035,37.781476974487305
1759160918.3753178,1759160918.3768184,46.799421310424805,3.6590099334716797,0.19478797912597656,34.63101387023926,34.825801849365234,38.59281539916992,39.17860984802246
1759160918.4222848,1759160918.4263191,44.48962211608887,0.14328956604003906,0.1690387725830078,36.0109806060791,36.18001937866211,36.53120994567871,37.70041465759277
1759160918.4680502,1759160918.4714615,33.2798957824707,2.4230480194091797,0.1697540283203125,21.17300033569336,21.342754364013672,23.905038833618164,24.69158172607422
1759160918.5014813,1759160918.5032654,27.922630310058594,2.9773712158203125,0.2028942108154297,21.236419677734375,21.439313888549805,24.595022201538086,25.52652359008789
1759160918.529498,1759160918.5306222,39.70980644226074,8.390665054321289,0.17023086547851562,21.62456512451172,21.794795989990234,30.221223831176758,30.765056610107422
1759160918.5696316,1759160918.5710063,26.972532272338867,1.085519790649414,0.1690387725830078,21.34251594543457,21.511554718017578,22.777318954467773,23.705244064331055
1759160918.5981538,1759160918.604475,31.495094299316406,0.016927719116210938,0.16880035400390625,21.44598960876465,21.614789962768555,21.8660831451416,22.879362106323242
1759160918.6321628,1759160918.633267,49.221038818359375,3.8924217224121094,0.1914501190185547,41.301727294921875,41.49317741394043,45.41611671447754,45.949697494506836
1759160918.6814804,1759160918.6892924,52.8104305267334,0.2033710479736328,0.17213821411132812,41.56923294067383,41.741371154785156,42.130231857299805,43.26772689819336
1759160918.7343762,1759160918.7355173,50.86994171142578,6.781578063964844,0.1842975616455078,34.096479415893555,34.28077697753906,41.09787940979004,41.63670539855957
1759160918.7853682,1759160918.787589,37.55664825439453,0.016450881958007812,0.17189979553222656,33.309221267700195,33.48112106323242,33.73146057128906,34.525156021118164
1759160918.823048,1759160918.824216,48.50578308105469,7.840871810913086,0.19407272338867188,37.4140739440918,37.60814666748047,45.48025131225586,46.02646827697754
1759160918.871677,1759160918.873087,34.67845916748047,7.486581802368164,0.1957416534423828,21.198272705078125,21.394014358520508,28.9156436920166,29.45399284362793
1759160918.906961,1759160918.9084547,30.8992862701416,4.642724990844727,0.1709461212158203,21.325349807739258,21.496295928955078,26.286602020263672,27.03380584716797
1759160918.9389062,1759160918.9400008,36.56935691833496,5.6285858154296875,0.16927719116210938,21.273374557495117,21.442651748657227,27.10247039794922,27.63819694519043
1759160918.9759939,1759160918.9771006,26.207923889160156,0.8971691131591797,0.1964569091796875,21.163225173950195,21.359682083129883,22.44281768798828,23.2694149017334
1759160919.0034478,1759160919.0102386,53.238868713378906,0.1316070556640625,0.17595291137695312,43.07079315185547,43.24674606323242,43.587684631347656,44.960737228393555
1759160919.0576642,1759160919.0647814,46.85473442077637,0.03337860107421875,0.17070770263671875,36.88549995422363,37.05620765686035,37.32895851135254,38.61808776855469
1759160919.1050246,1759160919.1129682,45.709848403930664,0.016927719116210938,0.17333030700683594,32.96613693237305,33.13946723937988,33.391714096069336,34.71231460571289
1759160919.1534295,1759160919.1572618,40.91000556945801,0.013828277587890625,0.18358230590820312,32.83286094665527,33.01644325256348,33.27202796936035,34.39044952392578
1759160919.1947353,1759160919.2008126,53.17234992980957,0.47326087951660156,0.20074844360351562,43.474435806274414,43.67518424987793,44.35253143310547,45.48001289367676
1759160919.2483027,1759160919.2553444,31.551361083984375,0.5481243133544922,0.19216537475585938,21.253108978271484,21.445274353027344,22.178173065185547,23.268938064575195
1759160919.2820678,1759160919.2835565,36.99827194213867,4.9343109130859375,0.17070770263671875,21.236181259155273,21.406888961791992,26.450634002685547,27.059078216552734
1759160919.3195827,1759160919.3210685,26.598453521728516,0.017881393432617188,0.1685619354248047,21.268606185913086,21.43716812133789,21.694421768188477,22.782325744628906
1759160919.349797,1759160919.3511844,28.577566146850586,2.2423267364501953,0.17309188842773438,21.40951156616211,21.582603454589844,23.964881896972656,24.7805118560791
1759160919.3803658,1759160919.3856812,31.10504150390625,0.016450881958007812,0.17142295837402344,22.629737854003906,22.80116081237793,23.05746078491211,24.060726165771484
1759160919.4139783,1759160919.4150765,54.3978214263916,4.451990127563477,0.17118453979492188,41.59092903137207,41.76211357116699,46.245574951171875,46.799659729003906
1759160919.4685895,1759160919.4723408,49.64566230773926,0.017404556274414062,0.1811981201171875,42.77396202087402,42.95516014099121,43.22075843811035,44.26836967468262
1759160919.5199015,1759160919.5263052,52.251577377319336,0.016927719116210938,0.17762184143066406,41.92233085632324,42.099952697753906,42.35124588012695,43.7169075012207
1759160919.5733883,1759160919.579189,41.75305366516113,0.11301040649414062,0.20313262939453125,33.905982971191406,34.10911560058594,34.427642822265625,35.4771614074707
1759160919.6153126,1759160919.6185985,41.00155830383301,6.119966506958008,0.1690387725830078,28.113603591918945,28.282642364501953,34.43741798400879,35.553932189941406
1759160919.6576128,1759160919.6642678,30.70545196533203,0.017881393432617188,0.17690658569335938,21.214723587036133,21.391630172729492,21.650075912475586,22.533655166625977
1759160919.689436,1759160919.6963384,32.38940238952637,0.4851818084716797,0.171661376953125,21.2552547454834,21.426916122436523,22.124052047729492,23.082256317138672
1759160919.7247746,1759160919.7268045,28.94902229309082,2.3746490478515625,0.17142295837402344,21.130084991455078,21.3015079498291,23.782014846801758,24.571895599365234
1759160919.7538462,1759160919.7604296,32.851457595825195,1.1742115020751953,0.17118453979492188,21.100997924804688,21.27218246459961,22.61972427368164,23.424386978149414
1759160919.7868028,1759160919.7879226,37.7194881439209,6.029605865478516,0.16880035400390625,23.224353790283203,23.39315414428711,29.458045959472656,29.994964599609375
1759160919.8257275,1759160919.8279412,49.30400848388672,0.3426074981689453,0.1842975616455078,43.16854476928711,43.35284233093262,43.8690185546875,45.03059387207031
1759160919.8792787,1759160919.882162,48.162221908569336,0.49424171447753906,0.1690387725830078,41.45503044128418,41.62406921386719,42.33813285827637,43.48897933959961
1759160919.927527,1759160919.9289434,45.62044143676758,6.546497344970703,0.1685619354248047,33.23054313659668,33.399105072021484,39.98112678527832,40.51661491394043
1759160919.9735308,1759160919.9795911,48.525094985961914,0.2772808074951172,0.1697540283203125,35.642147064208984,35.8119010925293,36.29612922668457,37.25099563598633
1759160920.0225334,1759160920.0238214,49.20244216918945,3.2196044921875,0.17213821411132812,41.58210754394531,41.75424575805664,45.074462890625,45.79806327819824
1759160920.0718505,1759160920.0793834,32.852888107299805,0.2834796905517578,0.17189979553222656,21.292686462402344,21.46458625793457,21.926403045654297,23.80990982055664
1759160920.1076727,1759160920.1090693,31.965017318725586,2.9540061950683594,0.16951560974121094,21.275997161865234,21.445512771606445,24.546384811401367,25.4056453704834
1759160920.1404514,1759160920.143818,34.928083419799805,1.2505054473876953,0.1766681671142578,21.367549896240234,21.544218063354492,22.969722747802734,23.874759674072266
1759160920.1755872,1759160920.1776147,26.44491195678711,0.03409385681152344,0.17213821411132812,21.094560623168945,21.266698837280273,21.53754234313965,22.579431533813477
1759160920.2021518,1759160920.203258,40.43436050415039,6.8817138671875,0.17595291137695312,23.013591766357422,23.189544677734375,30.102252960205078,30.67922592163086
1759160920.2427382,1759160920.2439854,46.77534103393555,0.46539306640625,0.16808509826660156,41.76473617553711,41.93282127380371,42.611122131347656,43.66755485534668
1759160920.292151,1759160920.2933037,55.16195297241211,4.137516021728516,0.171661376953125,41.92948341369629,42.101144790649414,46.27490043640137,46.91505432128906
1759160920.3481512,1759160920.3506665,43.17665100097656,0.016927719116210938,0.16999244689941406,33.91623497009277,34.08622741699219,34.33585166931152,35.38823127746582
1759160920.391453,1759160920.3925726,41.0158634185791,3.4646987915039062,0.17070770263671875,32.8519344329834,33.02264213562012,36.62729263305664,37.39762306213379
1759160920.434385,1759160920.4400287,44.32368278503418,0.017404556274414062,0.17118453979492188,36.30948066711426,36.48066520690918,36.733150482177734,37.622690200805664
1759160920.4801817,1759160920.4812806,36.740779876708984,6.313323974609375,0.17023086547851562,21.331787109375,21.502017974853516,27.846336364746094,28.386592864990234
1759160920.5170083,1759160920.52002,28.66053581237793,0.5197525024414062,0.16927719116210938,21.18206024169922,21.351337432861328,22.08256721496582,23.047924041748047
1759160920.546787,1759160920.552516,33.10227394104004,0.48923492431640625,0.1728534698486328,21.335601806640625,21.508455276489258,22.206783294677734,23.35953712463379
1759160920.5826538,1759160920.5840452,26.831865310668945,1.5869140625,0.16999244689941406,21.1946964263916,21.364688873291016,23.096323013305664,23.9255428314209
1759160920.6096463,1759160920.6178954,32.13381767272949,0.3173351287841797,0.17142295837402344,21.292686462402344,21.464109420776367,21.958112716674805,24.692058563232422
1759160920.6419013,1759160920.6477745,51.436662673950195,2.9299259185791016,0.17142295837402344,40.17066955566406,40.342092514038086,43.37763786315918,44.01898384094238
1759160920.694727,1759160920.69582,59.82065200805664,6.27446174621582,0.17905235290527344,42.62542724609375,42.80447959899902,49.11613464355469,49.65686798095703
1759160920.7547014,1759160920.7564101,45.02272605895996,0.015497207641601562,0.17023086547851562,41.20612144470215,41.376352310180664,41.62478446960449,42.61970520019531
1759160920.7998497,1759160920.8045042,46.914100646972656,4.603147506713867,0.17404556274414062,34.304141998291016,34.478187561035156,39.11280632019043,40.619611740112305
1759160920.8472147,1759160920.8538854,40.47966003417969,1.0442733764648438,0.17380714416503906,28.602123260498047,28.775930404663086,29.998302459716797,30.740737915039062
1759160920.8878293,1759160920.8889241,37.82248497009277,5.960226058959961,0.1742839813232422,21.30126953125,21.475553512573242,27.478694915771484,28.0153751373291
1759160920.9257755,1759160920.9274836,27.129173278808594,0.017642974853515625,0.17309188842773438,21.237611770629883,21.410703659057617,21.665573120117188,22.702455520629883
1759160920.9532876,1759160920.9544315,38.51199150085449,5.666494369506836,0.17118453979492188,21.49200439453125,21.663188934326172,27.36043930053711,27.90045738220215
1759160920.9918878,1759160920.9930253,25.28834342956543,0.016689300537109375,0.1697540283203125,21.312952041625977,21.48270606994629,21.735191345214844,22.788286209106445
1759160921.0172613,1759160921.0185792,35.46452522277832,6.957769393920898,0.17189979553222656,22.504091262817383,22.67599105834961,29.664278030395508,30.307292938232422
1759160921.0553186,1759160921.057382,47.53565788269043,1.893758773803711,0.2620220184326172,41.394710540771484,41.6567325592041,43.691396713256836,44.52633857727051
1759160921.1029773,1759160921.1078663,59.305429458618164,4.625558853149414,0.17762184143066406,40.907859802246094,41.08548164367676,45.74871063232422,46.82421684265137
1759160921.162412,1759160921.1647627,38.550376892089844,0.01621246337890625,0.17023086547851562,34.13128852844238,34.3015193939209,34.55162048339844,35.43257713317871
1759160921.2020662,1759160921.20316,51.17654800415039,7.027387619018555,0.16832351684570312,34.079551696777344,34.24787521362305,41.3055419921875,41.8391227722168
1759160921.2544763,1759160921.2556007,44.1441535949707,0.016927719116210938,0.17261505126953125,36.77105903625488,36.943674087524414,37.19902038574219,38.0704402923584
1759160921.2987459,1759160921.3001707,33.4928035736084,3.434896469116211,0.16951560974121094,21.246671676635742,21.416187286376953,24.991273880004883,25.638580322265625
1759160921.3323796,1759160921.3357732,29.156208038330078,0.5075931549072266,0.1838207244873047,21.587133407592773,21.770954132080078,22.487401962280273,23.669719696044922
1759160921.361888,1759160921.3691292,32.08565711975098,0.016450881958007812,0.19359588623046875,21.23236656188965,21.425962448120117,21.681547164916992,22.468090057373047
1759160921.3954315,1759160921.396522,37.15348243713379,5.092382431030273,0.171661376953125,21.277189254760742,21.448850631713867,26.642322540283203,27.24289894104004
1759160921.4327073,1759160921.4342763,26.60346031188965,0.03147125244140625,0.179290771484375,21.96335792541504,22.142648696899414,22.413253784179688,23.533105850219727
1759160921.4606874,1759160921.466967,53.4210205078125,0.5240440368652344,0.17261505126953125,43.08915138244629,43.26176643371582,43.9908504486084,45.163631439208984
1759160921.514224,1759160921.5193644,52.27231979370117,2.379179000854492,0.16927719116210938,41.28575325012207,41.45503044128418,43.93577575683594,44.57402229309082
1759160921.5684237,1759160921.5695384,49.404144287109375,4.755258560180664,0.20051002502441406,34.46698188781738,34.6674919128418,39.45612907409668,39.99924659729004
1759160921.6180007,1759160921.6191344,44.14510726928711,1.1165142059326172,0.18358230590820312,32.80138969421387,32.98497200012207,34.28363800048828,35.080671310424805
1759160921.6622703,1759160921.6644754,42.6785945892334,0.0171661376953125,0.1652240753173828,38.017988204956055,38.18321228027344,38.4371280670166,39.45207595825195
1759160921.706267,1759160921.7126267,31.6927433013916,1.355886459350586,0.1685619354248047,21.633625030517578,21.802186965942383,23.3304500579834,24.648427963256836
1759160921.739166,1759160921.7402625,31.871557235717773,6.901979446411133,0.1766681671142578,21.445274353027344,21.6219425201416,28.560400009155273,29.10304069519043
1759160921.7736046,1759160921.774703,34.70158576965332,5.123376846313477,0.16999244689941406,21.1484432220459,21.318435668945312,26.476621627807617,27.02045440673828
1759160921.8084903,1759160921.8116336,28.781890869140625,0.5536079406738281,0.17595291137695312,21.393537521362305,21.569490432739258,22.297143936157227,23.526430130004883
1759160921.839757,1759160921.8408616,36.35382652282715,3.8352012634277344,0.1723766326904297,22.41969108581543,22.59206771850586,26.462793350219727,27.009248733520508
1759160921.8764906,1759160921.8780618,50.3237247467041,0.5905628204345703,0.1704692840576172,40.627241134643555,40.79771041870117,41.565895080566406,42.81949996948242
1759160921.92701,1759160921.9301894,48.87676239013672,0.7679462432861328,0.1709461212158203,40.998220443725586,41.169166564941406,42.14763641357422,43.30635070800781
1759160921.9809349,1759160921.9830017,39.10994529724121,0.03361701965332031,0.1747608184814453,34.6074104309082,34.78217124938965,35.053253173828125,36.55219078063965
1759160922.021032,1759160922.0277555,45.70174217224121,1.5506744384765625,0.18095970153808594,32.570600509643555,32.75156021118164,34.476280212402344,35.27092933654785
1759160922.066903,1759160922.0730395,51.399946212768555,0.12278556823730469,0.16999244689941406,39.223670959472656,39.39366340637207,39.72339630126953,40.88783264160156
1759160922.1206686,1759160922.123863,30.012845993041992,0.016450881958007812,0.16880035400390625,21.181583404541016,21.350383758544922,21.616697311401367,22.458553314208984
1759160922.150806,1759160922.151958,34.69395637512207,4.081487655639648,0.17142295837402344,21.266460418701172,21.437883377075195,25.55227279663086,26.114463806152344
1759160922.1866999,1759160922.1887188,28.90944480895996,0.014543533325195312,0.17023086547851562,21.121501922607422,21.291732788085938,21.53921127319336,22.5677490234375
1759160922.2157784,1759160922.220596,30.21073341369629,0.5297660827636719,0.1819133758544922,21.496295928955078,21.67820930480957,22.409915924072266,24.240970611572266
1759160922.248424,1759160922.2495449,30.221939086914062,4.144191741943359,0.17023086547851562,21.31056785583496,21.480798721313477,25.659561157226562,26.2143611907959
1759160922.2787673,1759160922.285906,51.21445655822754,0.5459785461425781,0.17118453979492188,41.51034355163574,41.681528091430664,42.43588447570801,43.30873489379883
1759160922.3301568,1759160922.3346415,49.70574378967285,4.666805267333984,0.18143653869628906,33.30111503601074,33.48255157470703,38.18488121032715,38.73300552368164
1759160922.3804736,1759160922.3837156,39.40129280090332,0.048160552978515625,0.17189979553222656,32.42015838623047,32.592058181762695,32.88698196411133,34.20305252075195
1759160922.4216998,1759160922.4227939,50.2321720123291,4.549980163574219,0.17762184143066406,37.25624084472656,37.43386268615723,42.014122009277344,42.54865646362305
1759160922.472053,1759160922.473176,56.19645118713379,2.8760433197021484,0.1678466796875,43.673038482666016,43.840885162353516,46.862125396728516,47.54137992858887
1759160922.5286465,1759160922.5302086,25.842905044555664,0.6592273712158203,0.1952648162841797,21.158218383789062,21.353483200073242,22.195100784301758,23.131132125854492
1759160922.5554514,1759160922.5607157,32.44495391845703,2.3674964904785156,0.16880035400390625,21.300554275512695,21.4693546295166,23.941755294799805,24.773120880126953
1759160922.5883582,1759160922.5956368,33.93816947937012,0.029087066650390625,0.17070770263671875,21.22974395751953,21.40045166015625,21.669864654541016,22.620201110839844
1759160922.6232393,1759160922.6243474,34.59525108337402,3.815889358520508,0.17070770263671875,21.354198455810547,21.524906158447266,25.481462478637695,26.202917098999023
1759160922.657957,1759160922.6607652,27.361631393432617,0.03552436828613281,0.16999244689941406,21.91448211669922,22.084474563598633,22.36008644104004,23.420333862304688
1759160922.6854284,1759160922.6865294,58.12263488769531,7.553339004516602,0.1690387725830078,39.78776931762695,39.95680809020996,47.54304885864258,48.09141159057617
1759160922.7436752,1759160922.7453809,46.54073715209961,0.024557113647460938,0.17213821411132812,41.97406768798828,42.14620590209961,42.410850524902344,43.39909553527832
1759160922.7922902,1759160922.79339,51.54824256896973,5.086183547973633,0.1690387725830078,41.567325592041016,41.73636436462402,46.85544967651367,47.41096496582031
1759160922.8464682,1759160922.8478322,42.42706298828125,3.5543441772460938,0.1780986785888672,34.84511375427246,35.02321243286133,38.683176040649414,39.3977165222168
1759160922.8903265,1759160922.897377,36.773681640625,0.1742839813232422,0.16880035400390625,27.474164962768555,27.64296531677246,28.030872344970703,29.360055923461914
1759160922.9272218,1759160922.9329314,34.047842025756836,3.5123825073242188,0.171661376953125,21.219730377197266,21.39139175415039,25.051355361938477,26.029109954833984
1759160922.9616516,1759160922.9684355,33.70332717895508,0.31757354736328125,0.1709461212158203,21.181821823120117,21.352767944335938,21.87657356262207,22.75395393371582
1759160922.9954822,1759160922.996628,30.722618103027344,4.551410675048828,0.19216537475585938,21.362781524658203,21.554946899414062,26.13663673400879,26.699304580688477
1759160923.0287268,1759160923.0298336,28.874874114990234,3.818511962890625,0.1709461212158203,21.187782287597656,21.358728408813477,25.212526321411133,25.747060775756836
1759160923.0577075,1759160923.065112,33.78629684448242,1.2323856353759766,0.18548965454101562,23.221492767333984,23.406982421875,24.78480339050293,25.692462921142578
1759160923.0916674,1759160923.0927832,55.594444274902344,8.231639862060547,0.1709461212158203,42.65117645263672,42.82212257385254,51.08952522277832,51.62334442138672
1759160923.1491892,1759160923.1502988,50.30250549316406,4.544973373413086,0.17309188842773438,41.07189178466797,41.2449836730957,45.82858085632324,46.393632888793945
1759160923.1996078,1759160923.2043614,44.23236846923828,2.743244171142578,0.18024444580078125,33.70189666748047,33.88214111328125,36.72981262207031,37.32109069824219
1759160923.2458296,1759160923.247089,42.920827865600586,5.131959915161133,0.17070770263671875,32.912254333496094,33.08296203613281,38.32197189331055,38.928985595703125
1759160923.289118,1759160923.2962272,53.25031280517578,0.016450881958007812,0.17881393432617188,41.71442985534668,41.89324378967285,42.147159576416016,42.93203353881836
1759160923.3424952,1759160923.348761,30.460119247436523,0.20694732666015625,0.17189979553222656,21.384239196777344,21.55613899230957,21.937847137451172,23.29277992248535
1759160923.3730447,1759160923.3812175,32.74226188659668,0.2014636993408203,0.16999244689941406,21.29197120666504,21.461963653564453,21.843433380126953,22.986412048339844
1759160923.4085734,1759160923.410061,29.452085494995117,3.836393356323242,0.19431114196777344,21.161556243896484,21.355867385864258,25.29764175415039,25.890111923217773
1759160923.4381435,1759160923.445285,32.42897987365723,0.8957386016845703,0.19502639770507812,21.16703987121582,21.3620662689209,22.43638038635254,23.23007583618164
1759160923.470739,1759160923.4748597,33.946990966796875,3.954172134399414,0.1704692840576172,22.52197265625,22.692441940307617,26.75175666809082,27.384281158447266
1759160923.5085673,1759160923.5099883,51.917076110839844,2.485513687133789,0.17213821411132812,40.35687446594238,40.52901268005371,43.15996170043945,44.00038719177246
1759160923.5605698,1759160923.564481,52.14524269104004,0.16736984252929688,0.16808509826660156,41.174888610839844,41.342973709106445,41.7172908782959,42.96541213989258
1759160923.613321,1759160923.6148212,50.24218559265137,2.1715164184570312,0.1709461212158203,41.605472564697266,41.776418685913086,44.08860206604004,44.81363296508789
1759160923.6653447,1759160923.6691303,42.04368591308594,0.7913112640380859,0.16808509826660156,33.536434173583984,33.704519271850586,34.67392921447754,36.241769790649414
1759160923.7075164,1759160923.7086859,41.39256477355957,6.016016006469727,0.16880035400390625,28.39946746826172,28.568267822265625,34.619808197021484,35.181283950805664
1759160923.7490802,1759160923.7537968,30.43198585510254,0.5471706390380859,0.1838207244873047,21.32725715637207,21.511077880859375,22.23825454711914,23.44202995300293
1759160923.7846644,1759160923.7863636,26.036739349365234,0.5137920379638672,0.16880035400390625,21.198511123657227,21.367311477661133,22.101163864135742,23.195981979370117
1759160923.8136017,1759160923.8146973,35.08305549621582,4.422664642333984,0.17070770263671875,21.222829818725586,21.393537521362305,25.850772857666016,26.38697624206543
1759160923.8496525,1759160923.8511903,27.123689651489258,0.5252361297607422,0.1685619354248047,21.532773971557617,21.701335906982422,22.43638038635254,23.61583709716797
1759160923.8791847,1759160923.8812182,34.60550308227539,3.0891895294189453,0.18095970153808594,23.100614547729492,23.281574249267578,26.476621627807617,27.262210845947266
1759160923.9159074,1759160923.9172795,47.440528869628906,1.47247314453125,0.16951560974121094,40.953636169433594,41.123151779174805,42.74106025695801,43.57409477233887
1759160923.9670022,1759160923.968391,52.362680435180664,2.569437026977539,0.16927719116210938,41.838645935058594,42.0079231262207,44.719696044921875,45.47452926635742
1759160924.0194948,1759160924.0240402,41.87178611755371,0.11920928955078125,0.17023086547851562,32.19318389892578,32.3634147644043,32.69219398498535,33.66565704345703
1759160924.0615177,1759160924.0626535,47.637939453125,5.227327346801758,0.1704692840576172,33.86402130126953,34.03449058532715,39.29281234741211,39.82830047607422
1759160924.1092389,1759160924.1103535,45.62544822692871,2.7534961700439453,0.171661376953125,37.998199462890625,38.16986083984375,41.07522964477539,41.80288314819336
1759160924.1584337,1759160924.1598206,33.475399017333984,2.485036849975586,0.1990795135498047,21.35324478149414,21.552324295043945,24.180173873901367,25.035858154296875
1759160924.1920323,1759160924.1951175,29.999971389770508,0.014543533325195312,0.1728534698486328,21.222591400146484,21.395444869995117,21.64936065673828,22.63784408569336
1759160924.2221549,1759160924.223249,35.39681434631348,4.094839096069336,0.18548965454101562,21.26932144165039,21.454811096191406,25.580167770385742,26.11374855041504
1759160924.257994,1759160924.25944,27.350425720214844,0.44536590576171875,0.16999244689941406,21.462202072143555,21.63219451904297,22.28569984436035,23.55170249938965
1759160924.2854311,1759160924.291896,33.48350524902344,0.7364749908447266,0.1728534698486328,22.747516632080078,22.92037010192871,23.834705352783203,25.019168853759766
1759160924.319084,1759160924.3230944,53.15089225769043,3.8831233978271484,0.16951560974121094,41.788339614868164,41.957855224609375,45.94707489013672,46.67329788208008
1759160924.372524,1759160924.3798325,53.18021774291992,0.23698806762695312,0.2620220184326172,41.09764099121094,41.359663009643555,41.80645942687988,42.85573959350586
1759160924.425825,1759160924.4269245,48.932790756225586,5.656003952026367,0.1709461212158203,33.15377235412598,33.3247184753418,39.01410102844238,39.54792022705078
1759160924.4749165,1759160924.4772267,39.79992866516113,0.016450881958007812,0.1842975616455078,31.871795654296875,32.05609321594238,32.3178768157959,33.097028732299805
1759160924.5148385,1759160924.5159323,50.53520202636719,4.124164581298828,0.16927719116210938,42.20294952392578,42.37222671508789,46.52833938598633,47.07217216491699
1759160924.5654867,1759160924.5715005,33.20193290710449,2.324342727661133,0.17547607421875,21.354198455810547,21.529674530029297,24.001598358154297,24.768829345703125
