Timestamp,ArrivalTime,TotalTime(ms),WaitTime(ms),DecodeTime(ms),InferTime(ms),ServerComputeTime(ms),TotalServer(ms),Total
1759167614.7138603,1759167614.7769852,2302.9236793518066,0.031232833862304688,0.20956993103027344,2211.888313293457,2212.0978832244873,2212.186813354492,2225.520133972168
1759167617.0169954,1759167617.0232809,183.67338180541992,0.02002716064453125,0.08511543273925781,173.36392402648926,173.44903945922852,173.5239028930664,174.15356636047363
1759167617.200865,1759167617.2062762,170.93324661254883,0.019311904907226562,0.09250640869140625,161.20076179504395,161.29326820373535,161.36646270751953,161.97729110717773
1759167617.371972,1759167617.3811994,193.99428367614746,0.01811981201171875,0.08678436279296875,169.45123672485352,169.53802108764648,169.60620880126953,170.17245292663574
1759167617.5706158,1759167617.5768025,312.30783462524414,142.75240898132324,0.07462501525878906,158.9806079864502,159.05523300170898,301.969051361084,302.90842056274414
1759167617.8867867,1759167617.8983521,293.2009696960449,119.18020248413086,0.07271766662597656,158.13326835632324,158.20598602294922,277.53663063049316,278.4423828125
1759167618.1896045,1759167618.1951132,161.72170639038086,0.0171661376953125,0.072479248046875,155.2281379699707,155.30061721801758,155.35473823547363,155.84230422973633
1759167618.351479,1759167618.3570368,190.18220901489258,0.0152587890625,0.07081031799316406,154.26158905029297,154.33239936828613,154.3867588043213,182.92975425720215
1759167618.541827,1759167618.5530217,182.0967197418213,0.01621246337890625,0.07390975952148438,146.24476432800293,146.3186740875244,146.37231826782227,167.95778274536133
1759167618.7245421,1759167618.7291577,202.73685455322266,0.01621246337890625,0.07390975952148438,172.59716987609863,172.67107963562012,172.80912399291992,173.56014251708984
1759167618.927438,1759167619.1091928,373.37279319763184,0.036716461181640625,0.07319450378417969,186.3408088684082,186.41400337219238,186.50507926940918,187.72506713867188
1759167619.3036513,1759167619.3067486,183.9306354522705,0.0171661376953125,0.07605552673339844,172.3921298980713,172.4681854248047,172.5301742553711,173.04587364196777
1759167619.4877498,1759167619.5152965,234.80486869812012,0.01811981201171875,0.0743865966796875,175.7204532623291,175.7948398590088,175.86350440979004,195.84250450134277
1759167619.722785,1759167619.728823,199.8579502105713,0.015020370483398438,0.06937980651855469,164.5200252532959,164.58940505981445,164.63756561279297,191.29014015197754
1759167619.9228084,1759167619.9292822,160.13836860656738,0.016450881958007812,0.07271766662597656,152.6486873626709,152.72140502929688,152.7881622314453,153.3334255218506
1759167620.0831084,1759167620.0960083,155.37142753601074,0.015735626220703125,0.07176399230957031,141.53194427490234,141.6037082672119,141.65163040161133,142.12417602539062
1759167620.23964,1759167620.2476795,165.91691970825195,0.0171661376953125,0.07367134094238281,146.8031406402588,146.87681198120117,146.93260192871094,151.05366706848145
1759167620.4057071,1759167620.4183846,199.93877410888672,0.01621246337890625,0.07486343383789062,182.71660804748535,182.79147148132324,182.8627586364746,183.37774276733398
1759167620.6058035,1759167620.607304,220.13425827026367,0.016689300537109375,0.07367134094238281,179.7940731048584,179.86774444580078,179.92591857910156,180.4196834564209
1759167620.8316016,1759167621.111959,419.36612129211426,0.0476837158203125,0.06937980651855469,129.50992584228516,129.5793056488037,129.6846866607666,131.26420974731445
1759167621.2511208,1759167621.2561023,154.76584434509277,0.014781951904296875,0.07319450378417969,134.06872749328613,134.1419219970703,134.19795036315918,134.66787338256836
1759167621.4059908,1759167621.4137616,271.49415016174316,0.026226043701171875,0.0762939453125,114.04943466186523,114.12572860717773,114.37058448791504,261.69490814208984
1759167621.6785924,1759167621.683084,173.51913452148438,0.015497207641601562,0.07390975952148438,161.8022918701172,161.87620162963867,161.93246841430664,162.40453720092773
1759167621.8566399,1759167621.869742,175.76313018798828,0.0152587890625,0.07081031799316406,142.46606826782227,142.53687858581543,142.64559745788574,162.27388381958008
1759167622.032566,1759167622.0370936,161.27371788024902,0.016689300537109375,0.072479248046875,149.5814323425293,149.65391159057617,149.70874786376953,150.21324157714844
1759167622.1939406,1759167622.195416,198.93813133239746,0.015974044799804688,4.791975021362305,163.15698623657227,167.94896125793457,167.9997444152832,195.99580764770508
1759167622.3944325,1759167622.399119,147.61829376220703,0.016689300537109375,0.0705718994140625,140.96999168395996,141.04056358337402,141.09206199645996,141.56365394592285
1759167622.5422254,1759167622.5471084,121.4137077331543,0.014781951904296875,0.07200241088867188,112.93172836303711,113.00373077392578,113.05785179138184,113.54422569274902
1759167622.6637893,1759167622.6690757,142.75622367858887,0.015020370483398438,0.06961822509765625,133.32247734069824,133.3920955657959,133.453369140625,133.92090797424316
1759167622.8066912,1759167622.8111107,184.29970741271973,0.016450881958007812,0.07867813110351562,168.8098907470703,168.88856887817383,168.9460277557373,169.43764686584473
1759167622.9918084,1759167622.9933288,163.1002426147461,0.015020370483398438,0.07295608520507812,160.62521934509277,160.69817543029785,160.74633598327637,161.24653816223145
1759167623.15764,1759167623.162085,164.2129421234131,0.0152587890625,0.07033348083496094,155.76720237731934,155.8375358581543,155.89380264282227,156.36825561523438
1759167623.3246348,1759167623.3289187,182.0054054260254,0.014781951904296875,0.07033348083496094,156.53109550476074,156.6014289855957,156.65364265441895,157.11593627929688
1759167623.5068033,1759167623.5120823,176.77068710327148,0.017404556274414062,0.06937980651855469,167.98782348632812,168.05720329284668,168.11251640319824,168.5793399810791
1759167623.6837292,1759167623.6890929,166.1379337310791,0.015497207641601562,0.07295608520507812,156.53586387634277,156.60881996154785,156.6624641418457,157.14025497436523
1759167623.8500166,1759167623.8590505,164.62326049804688,0.015020370483398438,0.06890296936035156,145.02906799316406,145.0979709625244,145.15113830566406,145.60747146606445
1759167624.0148122,1759167624.0200891,149.25694465637207,0.014781951904296875,0.07009506225585938,142.93861389160156,143.00870895385742,143.07212829589844,143.5697078704834
1759167624.1676016,1759167624.172155,164.05129432678223,0.016927719116210938,0.08463859558105469,156.5225124359131,156.60715103149414,156.67128562927246,157.2117805480957
1759167624.3332984,1759167624.3372166,167.1464443206787,0.015974044799804688,0.07724761962890625,152.56953239440918,152.6467800140381,152.70400047302246,153.2135009765625
1759167624.5006347,1759167624.5061412,175.0051975250244,0.016927719116210938,0.07939338684082031,163.03038597106934,163.10977935791016,163.16843032836914,163.6831760406494
1759167624.6757922,1759167624.682203,184.49831008911133,0.016689300537109375,0.07653236389160156,165.02857208251953,165.10510444641113,165.1599407196045,177.74629592895508
1759167624.860439,1759167624.8690126,193.20178031921387,0.015974044799804688,0.07200241088867188,180.6638240814209,180.73582649230957,180.78851699829102,181.2725067138672
1759167625.0537944,1759167625.0569334,152.8451442718506,0.0171661376953125,0.072479248046875,146.63076400756836,146.70324325561523,146.76260948181152,147.3836898803711
1759167625.2067945,1759167625.2139876,156.8448543548584,0.015020370483398438,0.09894371032714844,125.16951560974121,125.26845932006836,125.31828880310059,125.78153610229492
1759167625.3637936,1759167625.3691046,172.19901084899902,0.015735626220703125,0.07081031799316406,145.4622745513916,145.53308486938477,145.5821990966797,146.09384536743164
1759167625.5361412,1759167625.5410757,177.73675918579102,0.016450881958007812,0.072479248046875,159.78431701660156,159.85679626464844,159.9140167236328,160.3868007659912
1759167625.719598,1759167625.8631809,292.29068756103516,0.09799003601074219,0.06651878356933594,141.40915870666504,141.47567749023438,141.6492462158203,285.85124015808105
1759167626.0165956,1759167626.027363,249.06635284423828,123.16012382507324,0.06914138793945312,108.5813045501709,108.65044593811035,231.9505214691162,232.84649848937988
1759167626.2688863,1759167626.274479,178.8163185119629,0.030755996704101562,0.07319450378417969,68.1452751159668,68.21846961975098,68.4654712677002,163.50317001342773
1759167626.4478507,1759167626.464028,132.7834129333496,0.015735626220703125,0.07343292236328125,98.12521934509277,98.19865226745605,98.25587272644043,98.77634048461914
1759167626.5808907,1759167626.5982914,324.81932640075684,124.48596954345703,0.06604194641113281,160.20894050598145,160.27498245239258,284.8978042602539,285.71486473083496
1759167626.910056,1759167626.9231892,298.6581325531006,0.110626220703125,0.07033348083496094,122.42627143859863,122.4966049194336,261.1842155456543,261.89351081848145
1759167627.2126021,1759167627.2191226,191.22982025146484,0.0152587890625,0.07033348083496094,175.96054077148438,176.03087425231934,176.0852336883545,176.56183242797852
1759167627.4085946,1759167627.413195,173.4602451324463,0.015020370483398438,0.07152557373046875,164.6714210510254,164.74294662475586,164.79158401489258,165.25840759277344
1759167627.5846398,1759167627.5895214,187.7574920654297,0.01621246337890625,0.07343292236328125,171.54502868652344,171.61846160888672,171.6759204864502,172.1947193145752
1759167627.772561,1759167627.7920341,201.07698440551758,0.014543533325195312,0.06985664367675781,160.76374053955078,160.83359718322754,160.88581085205078,161.35239601135254
1759167627.9737947,1759167627.9810994,166.40567779541016,0.014543533325195312,0.06937980651855469,148.5602855682373,148.62966537475586,148.6825942993164,149.1537094116211
1759167628.1403632,1759167628.1450968,183.2141876220703,0.015497207641601562,0.07104873657226562,170.43042182922363,170.5014705657959,170.55606842041016,171.0212230682373
1759167628.3237352,1759167628.3259592,181.24628067016602,0.019073486328125,0.07295608520507812,174.3936538696289,174.46660995483398,174.53408241271973,175.37999153137207
1759167628.505132,1759167628.510092,172.6374626159668,0.015735626220703125,0.0743865966796875,166.71204566955566,166.78643226623535,166.83626174926758,167.31667518615723
1759167628.6779172,1759167628.6794202,197.67117500305176,0.014781951904296875,0.07796287536621094,185.5316162109375,185.6095790863037,185.65869331359863,186.15174293518066
1759167628.8757515,1759167628.8883235,198.88782501220703,0.0152587890625,0.07033348083496094,160.04633903503418,160.11667251586914,160.16554832458496,160.63666343688965
1759167629.0747907,1759167629.0799918,166.85104370117188,0.018596649169921875,0.06842613220214844,158.0488681793213,158.11729431152344,158.17523002624512,158.66899490356445
1759167629.2417934,1759167629.247081,172.84655570983887,0.015497207641601562,0.06937980651855469,163.15698623657227,163.22636604309082,163.2821559906006,163.78068923950195
1759167629.41479,1759167629.4200811,176.28002166748047,0.014543533325195312,0.06961822509765625,160.37249565124512,160.44211387634277,160.49671173095703,160.97092628479004
1759167629.591232,1759167629.5960755,189.81456756591797,0.01430511474609375,0.06914138793945312,159.53516960144043,159.60431098937988,159.65819358825684,160.12144088745117
1759167629.782536,1759167629.7870965,161.37456893920898,0.014781951904296875,0.06890296936035156,152.53138542175293,152.60028839111328,152.6482105255127,153.11098098754883
1759167629.9440634,1759167629.9768474,233.57701301574707,0.06175041198730469,0.09512901306152344,195.41215896606445,195.50728797912598,195.6613063812256,224.86615180969238
1759167630.1777432,1759167630.1791534,196.1688995361328,0.014781951904296875,0.07009506225585938,190.43302536010742,190.50312042236328,190.60635566711426,191.26033782958984
1759167630.3776383,1759167630.3801122,190.97256660461426,0.016450881958007812,0.06842613220214844,174.7419834136963,174.81040954589844,174.90911483764648,175.5661964416504
1759167630.568786,1759167630.5830004,203.11951637268066,0.014781951904296875,0.07128715515136719,182.88302421569824,182.9543113708496,183.00724029541016,183.48121643066406
1759167630.7720528,1759167630.9353,310.0748062133789,0.03504753112792969,0.0705718994140625,129.7767162322998,129.84728813171387,129.93359565734863,132.51066207885742
1759167631.0822773,1759167631.0884972,168.60699653625488,0.029325485229492188,0.07176399230957031,132.90071487426758,132.97247886657715,133.10647010803223,134.81473922729492
1759167631.2550313,1759167631.2641225,178.5881519317627,0.015735626220703125,0.07176399230957031,167.23322868347168,167.30499267578125,167.3603057861328,167.8473949432373
1759167631.4371884,1759167631.4453242,159.76452827453613,0.015020370483398438,0.07152557373046875,145.55764198303223,145.6291675567627,145.68257331848145,146.17466926574707
1759167631.597104,1759167631.7424116,334.74254608154297,0.03457069396972656,0.07677078247070312,174.32880401611328,174.40557479858398,174.55148696899414,198.8835334777832
1759167631.9319997,1759167631.940998,175.048828125,0.015735626220703125,0.0705718994140625,160.5980396270752,160.66861152648926,160.72583198547363,161.19647026062012
1759167632.1071963,1759167632.110066,167.8626537322998,0.0152587890625,0.06890296936035156,151.57103538513184,151.6399383544922,151.69548988342285,152.16374397277832
1759167632.275209,1759167632.288982,181.08677864074707,0.01621246337890625,0.06794929504394531,150.31766891479492,150.38561820983887,150.4371166229248,166.9316291809082
1759167632.4596395,1759167632.4641345,175.99940299987793,0.015497207641601562,0.06818771362304688,163.65838050842285,163.7265682220459,163.77544403076172,164.23630714416504
1759167632.635745,1759167632.6389086,159.1637134552002,0.015497207641601562,0.07081031799316406,152.19497680664062,152.2657871246338,152.32324600219727,152.79698371887207
1759167632.7950568,1759167632.8001828,153.58281135559082,0.017404556274414062,0.0705718994140625,144.48857307434082,144.55914497375488,144.61803436279297,145.1878547668457
1759167632.9487936,1759167632.954077,161.11230850219727,0.01430511474609375,0.07033348083496094,149.22094345092773,149.2912769317627,149.38902854919434,150.0399112701416
1759167633.1100585,1759167633.1132963,204.59294319152832,0.019073486328125,0.09489059448242188,176.05948448181152,176.15437507629395,176.2242317199707,176.74756050109863
1759167633.3147986,1759167633.5769343,447.8926658630371,0.047206878662109375,0.06842613220214844,163.6331081390381,163.70153427124023,163.8040542602539,178.76458168029785
1759167633.7715976,1759167633.7742863,285.28380393981934,0.024318695068359375,0.0705718994140625,118.48115921020508,118.55173110961914,118.77727508544922,280.11059761047363
1759167634.060646,1759167634.073995,262.2799873352051,0.11873245239257812,0.07414817810058594,102.26583480834961,102.3399829864502,245.38612365722656,246.36006355285645
1759167634.3286011,1759167634.338034,189.30363655090332,0.016450881958007812,0.07033348083496094,167.4480438232422,167.51837730407715,167.57583618164062,168.06936264038086
1759167634.5206509,1759167634.5261316,201.92670822143555,0.016450881958007812,0.07534027099609375,188.76886367797852,188.8442039489746,188.9028549194336,189.39638137817383
1759167634.7227387,1759167634.7607067,224.90501403808594,0.03361701965332031,0.07319450378417969,180.70077896118164,180.77397346496582,180.8912754058838,214.71834182739258
1759167634.947799,1759167634.9525778,204.11920547485352,0.016689300537109375,0.07271766662597656,195.05023956298828,195.12295722961426,195.18232345581055,195.7108974456787
1759167635.15207,1759167635.1601148,183.58564376831055,0.015020370483398438,0.07367134094238281,170.81689834594727,170.89056968688965,170.94087600708008,171.4179515838623
1759167635.335808,1759167635.3410764,151.49974822998047,0.015497207641601562,0.07009506225585938,130.25236129760742,130.32245635986328,130.37776947021484,145.88046073913574
1759167635.487456,1759167635.494103,191.33591651916504,0.01430511474609375,0.0705718994140625,177.84690856933594,177.91748046875,177.97231674194336,178.42459678649902
1759167635.6789982,1759167635.6844406,287.2908115386963,159.34491157531738,0.06818771362304688,117.88821220397949,117.95639991760254,277.44269371032715,278.9123058319092
1759167635.974598,1759167635.9839058,413.71679306030273,239.94183540344238,0.06413459777832031,153.76043319702148,153.8245677947998,393.95761489868164,400.70605278015137
1759167636.3884192,1759167636.4091897,353.546142578125,0.1163482666015625,0.08177757263183594,156.7227840423584,156.80456161499023,325.1807689666748,325.89197158813477
1759167636.7453132,1759167636.7470427,187.32929229736328,0.014543533325195312,0.07009506225585938,182.45506286621094,182.5251579284668,182.5871467590332,183.11786651611328
1759167636.932797,1759167637.0679584,322.8490352630615,0.03600120544433594,0.06985664367675781,161.2985134124756,161.36837005615234,161.45825386047363,174.06010627746582
1759167637.2558038,1759167637.2572336,168.77365112304688,0.014543533325195312,0.06961822509765625,159.6963405609131,159.76595878601074,159.8215103149414,160.2790355682373
1759167637.426491,1759167637.4496024,407.92155265808105,0.058650970458984375,0.06985664367675781,91.0651683807373,91.13502502441406,91.28332138061523,98.10543060302734
1759167637.8372843,1759167637.8690202,187.15476989746094,0.0152587890625,0.0743865966796875,134.97591018676758,135.05029678344727,135.10656356811523,135.59579849243164
1759167638.0246134,1759167638.0316396,253.9658546447754,114.52126502990723,0.06508827209472656,123.57401847839355,123.63910675048828,238.2986545562744,239.3355369567871
1759167638.2796373,1759167638.4227283,288.2523536682129,0.03910064697265625,0.07295608520507812,130.3536891937256,130.42664527893066,130.5699348449707,143.20111274719238
1759167638.5680454,1759167638.5714567,116.89949035644531,0.014066696166992188,0.08368492126464844,104.06136512756348,104.14505004882812,104.19583320617676,104.65693473815918
1759167638.6850965,1759167638.6901233,121.65164947509766,0.015020370483398438,0.07367134094238281,109.4517707824707,109.52544212341309,109.57980155944824,110.0611686706543
1759167638.8068984,1759167638.8280141,168.04766654968262,0.014781951904296875,0.07295608520507812,137.42351531982422,137.4964714050293,137.5443935394287,138.02194595336914
1759167638.9766374,1759167638.9801526,148.14162254333496,0.015020370483398438,0.07033348083496094,121.45137786865234,121.5217113494873,121.57487869262695,122.04456329345703
1759167639.1276567,1759167639.13304,151.92532539367676,0.015974044799804688,0.07796287536621094,136.92283630371094,137.00079917907715,137.05801963806152,137.58182525634766
1759167639.2836442,1759167639.2976131,167.9997444152832,0.016450881958007812,0.07653236389160156,131.5007209777832,131.5772533416748,131.6359043121338,132.14683532714844
1759167639.4518013,1759167639.4571242,176.83672904968262,0.017642974853515625,0.07605552673339844,167.85645484924316,167.93251037597656,167.99283027648926,168.49708557128906
1759167639.6288424,1759167639.6352348,157.1345329284668,0.017404556274414062,0.07724761962890625,124.6025562286377,124.6798038482666,124.73917007446289,125.24843215942383
1759167639.7861812,1759167639.7950253,166.4564609527588,0.016689300537109375,0.07176399230957031,147.71628379821777,147.78804779052734,147.84598350524902,148.33879470825195
1759167639.952789,1759167639.9600883,183.78520011901855,0.015020370483398438,0.07891654968261719,168.365478515625,168.44439506530762,168.49970817565918,173.88319969177246
1759167640.1367288,1759167640.1420875,172.84607887268066,0.015020370483398438,0.07271766662597656,162.54043579101562,162.6131534576416,162.66965866088867,163.14458847045898
1759167640.318613,1759167640.4611168,274.9636173248291,0.09799003601074219,0.06556510925292969,104.83598709106445,104.90155220031738,105.07321357727051,261.9791030883789
1759167640.5941696,1759167640.6160557,136.40570640563965,0.015020370483398438,0.0705718994140625,102.68378257751465,102.75435447692871,102.80847549438477,103.26266288757324
1759167640.7325962,1759167640.7408378,167.01936721801758,0.016689300537109375,0.07128715515136719,154.1006565093994,154.17194366455078,154.22725677490234,158.1246852874756
1759167640.9007692,1759167640.9191706,184.19814109802246,0.014781951904296875,0.07081031799316406,164.8399829864502,164.91079330444336,164.96014595031738,165.42482376098633
1759167641.0851228,1759167641.0922573,180.10663986206055,0.014781951904296875,0.07295608520507812,155.98225593566895,156.05521202087402,156.10671043395996,156.57401084899902
1759167641.2655156,1759167641.2750041,177.52385139465332,0.015020370483398438,0.07152557373046875,163.27857971191406,163.35010528564453,163.39898109436035,163.89203071594238
1759167641.4446375,1759167641.449441,184.1590404510498,0.0152587890625,0.07700920104980469,178.3888339996338,178.4658432006836,178.52306365966797,179.0006160736084
1759167641.6289468,1759167641.6304414,191.19763374328613,0.014781951904296875,0.07939338684082031,176.70893669128418,176.788330078125,176.83911323547363,177.32930183410645
1759167641.8202484,1759167641.8244152,179.94213104248047,0.01621246337890625,0.08797645568847656,150.62189102172852,150.709867477417,150.76613426208496,151.32927894592285
1759167642.0003672,1759167642.0040953,188.58933448791504,0.014781951904296875,0.07224082946777344,183.9141845703125,183.98642539978027,184.04030799865723,184.5078468322754
1759167642.1890638,1759167642.1905594,195.57690620422363,0.01621246337890625,0.07224082946777344,173.7363338470459,173.80857467651367,173.8588809967041,174.35979843139648
1759167642.3876388,1759167642.39642,168.41721534729004,0.015497207641601562,0.08106231689453125,149.63126182556152,149.71232414245605,149.7640609741211,150.23374557495117
1759167642.5562217,1759167642.5650008,172.82772064208984,0.015974044799804688,0.07104873657226562,139.9233341217041,139.99438285827637,140.0439739227295,140.53869247436523
1759167642.7316396,1759167642.7360847,165.36355018615723,0.01621246337890625,0.07104873657226562,159.97719764709473,160.048246383667,160.10499000549316,160.58039665222168
1759167642.8986382,1759167642.9001188,150.00152587890625,0.0152587890625,0.07009506225585938,146.14510536193848,146.21520042419434,146.26622200012207,146.7602252960205
1759167643.0487902,1759167643.0544472,123.23570251464844,0.015020370483398438,0.07724761962890625,113.17777633666992,113.25502395629883,113.3110523223877,113.77334594726562
1759167643.1721678,1759167643.3258796,319.54312324523926,0.09489059448242188,0.06723403930664062,153.7785530090332,153.84578704833984,154.01244163513184,284.3470573425293
1759167643.495651,1759167643.4970992,167.21153259277344,0.015497207641601562,0.06890296936035156,154.18767929077148,154.25658226013184,154.30974960327148,154.78777885437012
1759167643.6661532,1759167643.671077,175.42386054992676,0.015735626220703125,0.07033348083496094,166.12577438354492,166.19610786437988,166.25094413757324,166.72205924987793
1759167643.842186,1759167643.8549948,193.4530735015869,0.016450881958007812,0.06937980651855469,164.78657722473145,164.85595703125,164.90530967712402,165.3766632080078
1759167644.0357885,1759167644.0414364,267.5356864929199,124.847412109375,0.06604194641113281,131.80136680603027,131.8674087524414,256.8485736846924,257.739782333374
1759167644.3034751,1759167644.328202,197.39389419555664,0.01621246337890625,0.07319450378417969,157.85956382751465,157.93275833129883,157.98640251159668,158.50377082824707
1759167644.5036473,1759167644.5081408,195.11008262634277,0.01621246337890625,0.0705718994140625,166.8095588684082,166.88013076782227,166.9762134552002,167.63687133789062
1759167644.6989095,1759167644.7040854,182.96527862548828,0.0171661376953125,0.0705718994140625,170.22204399108887,170.29261589050293,170.39132118225098,171.04148864746094
1759167644.8820226,1759167644.8881147,195.19352912902832,0.014543533325195312,0.06985664367675781,178.4839630126953,178.55381965637207,178.60174179077148,179.07214164733887
1759167645.0773196,1759167645.0879986,169.34871673583984,0.01621246337890625,0.07009506225585938,154.99067306518555,155.0607681274414,155.11608123779297,155.6079387664795
1759167645.2536733,1759167645.2581334,155.32326698303223,0.015735626220703125,0.07033348083496094,126.54256820678711,126.61290168762207,126.66726112365723,127.14004516601562
1759167645.4126906,1759167645.4142067,146.2113857269287,0.015020370483398438,0.06985664367675781,141.30353927612305,141.3733959197998,141.493558883667,142.4252986907959
1759167645.5626364,1759167645.5671852,166.93949699401855,0.015974044799804688,0.09751319885253906,137.88580894470215,137.9833221435547,138.04078102111816,138.57626914978027
1759167645.7297266,1759167645.7311158,136.84988021850586,0.015020370483398438,0.07152557373046875,125.87356567382812,125.9450912475586,125.99825859069824,126.45578384399414
1759167645.8671458,1759167645.8765402,153.69725227355957,0.0152587890625,0.07152557373046875,126.13868713378906,126.21021270751953,126.31773948669434,126.99723243713379
1759167646.0227103,1759167646.0299976,171.29921913146973,0.015020370483398438,0.0705718994140625,140.3663158416748,140.43688774108887,140.49220085144043,160.0935459136963
1759167646.1967063,1759167646.207142,164.87550735473633,0.016927719116210938,0.07200241088867188,151.60131454467773,151.6733169555664,151.7312526702881,152.31728553771973
1759167646.366071,1759167646.3772027,293.64633560180664,0.12230873107910156,0.07176399230957031,123.39973449707031,123.47149848937988,276.71289443969727,277.41193771362305
1759167646.6598716,1759167646.6693776,254.14133071899414,0.1125335693359375,0.07987022399902344,134.02390480041504,134.10377502441406,216.294527053833,217.05913543701172
1759167646.914166,1759167646.9233222,203.11617851257324,85.88004112243652,0.07390975952148438,102.81777381896973,102.89168357849121,188.90857696533203,189.8193359375
1759167647.1174502,1759167647.1331518,131.42776489257812,0.016450881958007812,0.06937980651855469,112.52284049987793,112.59222030639648,112.71095275878906,113.52968215942383
1759167647.2490313,1759167647.2536085,143.54205131530762,0.015497207641601562,0.07200241088867188,130.4917335510254,130.56373596191406,130.6135654449463,131.14166259765625
1759167647.3975935,1759167647.4050083,139.44077491760254,0.0152587890625,0.07128715515136719,117.14744567871094,117.2187328338623,117.27523803710938,117.75350570678711
1759167647.5379925,1759167647.5464768,158.48064422607422,0.015974044799804688,0.09083747863769531,139.33944702148438,139.43028450012207,139.48369026184082,140.0012969970703
1759167647.6966412,1759167647.702012,188.03715705871582,0.015497207641601562,0.07319450378417969,181.66017532348633,181.7333698272705,181.79082870483398,182.28459358215332
1759167647.88483,1759167647.886404,205.80577850341797,0.0152587890625,0.12540817260742188,176.316499710083,176.44190788269043,176.5432357788086,177.23703384399414
1759167648.090789,1759167648.1100292,187.19196319580078,0.015497207641601562,0.0705718994140625,165.25769233703613,165.3282642364502,165.44723510742188,166.19157791137695
1759167648.2796395,1759167648.2894902,155.2603244781494,0.0286102294921875,0.07295608520507812,142.16947555541992,142.242431640625,142.37046241760254,143.11838150024414
1759167648.4395976,1759167648.4454134,160.9809398651123,0.015974044799804688,0.09250640869140625,152.33874320983887,152.43124961853027,152.48727798461914,152.97436714172363
1759167648.6007338,1759167648.606174,153.90396118164062,0.01430511474609375,0.06937980651855469,145.45679092407227,145.52617073059082,145.58172225952148,146.04711532592773
1759167648.7547896,1759167648.7620218,155.84874153137207,0.0152587890625,0.09679794311523438,142.1499252319336,142.24672317504883,142.30108261108398,142.78364181518555
1759167648.910791,1759167648.915264,181.39958381652832,0.0152587890625,0.06985664367675781,150.9537696838379,151.02362632751465,151.078462600708,151.54314041137695
1759167649.0923364,1759167649.0990903,179.54564094543457,0.015497207641601562,0.07557868957519531,169.3716049194336,169.4471836090088,169.50702667236328,169.98887062072754
1759167649.2720351,1759167649.2811248,189.00585174560547,0.015735626220703125,0.0705718994140625,158.11634063720703,158.1869125366211,158.2357883453369,158.70952606201172
1759167649.4646382,1759167649.4661255,163.03515434265137,0.016927719116210938,0.07295608520507812,160.6125831604004,160.68553924560547,160.7379913330078,161.30423545837402
1759167649.6295967,1759167649.6330872,176.44119262695312,0.015020370483398438,0.0705718994140625,165.99273681640625,166.0633087158203,166.11814498901367,166.595458984375
1759167649.8061392,1759167649.8120987,184.20958518981934,0.021219253540039062,0.0705718994140625,157.2582721710205,157.32884407043457,157.38868713378906,177.9003143310547
1759167649.990951,1759167649.9980814,153.08761596679688,0.015497207641601562,0.07033348083496094,123.72303009033203,123.79336357116699,123.84629249572754,124.3133544921875
1759167650.1476378,1759167650.1520889,163.8956069946289,0.0152587890625,0.07081031799316406,158.48779678344727,158.55860710144043,158.6160659790039,159.09171104431152
1759167650.311678,1759167650.319224,154.95753288269043,0.0152587890625,0.07271766662597656,133.8186264038086,133.89134407043457,133.9421272277832,134.45210456848145
1759167650.4667845,1759167650.4720736,189.44954872131348,0.0152587890625,0.07033348083496094,166.5048599243164,166.57519340515137,166.63217544555664,167.1009063720703
1759167650.6563976,1759167650.6578622,189.1789436340332,0.0152587890625,0.0762939453125,185.6076717376709,185.6839656829834,185.73522567749023,186.20014190673828
1759167650.845728,1759167650.8510978,163.2857322692871,0.014781951904296875,0.07104873657226562,137.27235794067383,137.3434066772461,137.39681243896484,153.40232849121094
1759167651.0091374,1759167651.0183797,289.7372245788574,0.11467933654785156,0.08678436279296875,127.02250480651855,127.10928916931152,273.40006828308105,274.1062641143799
1759167651.304435,1759167651.3094049,269.2101001739502,130.27715682983398,0.07152557373046875,106.19616508483887,106.26769065856934,236.6790771484375,256.70433044433594
1759167651.5737956,1759167651.5812945,277.02808380126953,129.48060035705566,0.07963180541992188,125.94008445739746,126.01971626281738,255.63645362854004,265.8376693725586
1759167651.8509557,1759167651.8601406,142.3332691192627,0.0152587890625,0.06937980651855469,129.4991970062256,129.56857681274414,129.6231746673584,130.08499145507812
1759167651.9934351,1759167651.9971185,156.39233589172363,0.016450881958007812,0.07033348083496094,147.9198932647705,147.99022674560547,148.04577827453613,148.6036777496338
1759167652.149978,1759167652.1550994,147.7508544921875,0.014543533325195312,0.072479248046875,138.48423957824707,138.55671882629395,138.6125087738037,139.0848159790039
1759167652.2987502,1759167652.303089,149.8258113861084,0.015497207641601562,0.07414817810058594,137.6786231994629,137.75277137756348,137.80856132507324,138.28706741333008
1759167652.4487302,1759167652.4615982,138.9157772064209,0.015735626220703125,0.07748603820800781,117.1579360961914,117.23542213439941,117.35272407531738,118.08037757873535
1759167652.5895944,1759167652.59315,169.1141128540039,0.014066696166992188,0.06985664367675781,160.96115112304688,161.03100776672363,161.07749938964844,161.5450382232666
1759167652.7616336,1759167653.0371132,432.08813667297363,0.14829635620117188,0.06747245788574219,134.47976112365723,134.54723358154297,134.79065895080566,409.31224822998047
1759167653.1938727,1759167653.4756086,457.06987380981445,0.049114227294921875,0.0705718994140625,163.96284103393555,164.0334129333496,164.1404628753662,165.60697555541992
1759167653.651104,1759167653.6665754,308.7904453277588,0.025987625122070312,0.06961822509765625,137.18318939208984,137.2528076171875,137.49933242797852,269.55580711364746
1759167653.960088,1759167654.1090732,314.33939933776855,0.03910064697265625,0.07319450378417969,143.91303062438965,143.98622512817383,144.08588409423828,162.24956512451172
1759167654.2806096,1759167654.287546,304.97241020202637,150.3751277923584,0.07081031799316406,122.85494804382324,122.9257583618164,273.4498977661133,284.4858169555664
1759167654.5857484,1759167654.5915315,312.85715103149414,139.5261287689209,0.07128715515136719,139.46223258972168,139.53351974487305,279.21199798583984,301.6960620880127
1759167654.9026444,1759167654.9077327,347.0032215118408,164.1085147857666,0.06818771362304688,173.41232299804688,173.48051071166992,337.73279190063477,338.65904808044434
1759167655.2546086,1759167655.2597451,257.0347785949707,126.38330459594727,0.06628036499023438,118.8819408416748,118.94822120666504,245.4695701599121,246.65594100952148
1759167655.5136387,1759167655.519089,154.48737144470215,0.015497207641601562,0.07009506225585938,143.43595504760742,143.50605010986328,143.5565948486328,144.0281867980957
1759167655.668289,1759167655.6776707,173.28596115112305,0.01621246337890625,0.07033348083496094,143.51534843444824,143.5856819152832,143.64242553710938,144.12975311279297
1759167655.841728,1759167655.848436,334.00678634643555,0.1380443572998047,0.07295608520507812,139.02950286865234,139.10245895385742,321.6879367828369,322.4034309387207
1759167656.1805968,1759167656.1854455,295.9942817687988,151.6122817993164,0.06890296936035156,134.812593460083,134.88149642944336,286.62919998168945,290.6816005706787
1759167656.4769032,1759167656.48745,158.24460983276367,0.01621246337890625,0.10085105895996094,144.19794082641602,144.29879188537598,144.3498134613037,144.8218822479248
1759167656.6395967,1759167656.6440918,161.0426902770996,0.015974044799804688,0.07081031799316406,153.04040908813477,153.11121940612793,153.1674861907959,153.64527702331543
1759167656.800791,1759167656.8109937,180.25636672973633,0.015020370483398438,0.06771087646484375,142.6997184753418,142.76742935180664,142.822265625,143.29099655151367
1759167656.9826746,1759167656.9867158,175.9624481201172,0.015020370483398438,0.06866455078125,168.82681846618652,168.89548301696777,168.9443588256836,169.41475868225098
1759167657.1587875,1759167657.1640706,159.79313850402832,0.014781951904296875,0.06937980651855469,134.91082191467285,134.9802017211914,135.03599166870117,135.50209999084473
1759167657.318749,1759167657.3240995,176.97834968566895,0.015735626220703125,0.07748603820800781,156.29196166992188,156.36944770812988,170.4869270324707,171.14543914794922
1759167657.4985926,1759167657.501199,199.3083953857422,0.027894973754882812,0.1575946807861328,191.58315658569336,191.7407512664795,191.88952445983887,192.69633293151855
1759167657.6980486,1759167657.7141116,212.996244430542,0.0152587890625,0.07152557373046875,167.28687286376953,167.3583984375,167.41943359375,167.89627075195312
1759167657.9126391,1759167657.9170768,156.01491928100586,0.014781951904296875,0.0705718994140625,145.93076705932617,146.00133895874023,146.04973793029785,146.55089378356934
1759167658.0688002,1759167658.0747807,140.84100723266602,0.0171661376953125,0.07009506225585938,130.39708137512207,130.46717643737793,130.5258274078369,134.7484588623047
1759167658.2097447,1759167658.2131305,161.89336776733398,0.015020370483398438,0.07176399230957031,154.59775924682617,154.66952323913574,154.7243595123291,155.19261360168457
1759167658.371788,1759167658.3770764,146.92330360412598,0.015974044799804688,0.07319450378417969,128.9072036743164,128.9803981781006,129.03523445129395,129.50420379638672
1759167658.518859,1759167658.524081,131.00242614746094,0.01430511474609375,0.0705718994140625,121.7505931854248,121.82116508483887,121.87433242797852,122.34711647033691
1759167658.6500077,1759167658.656015,118.62802505493164,0.01621246337890625,0.06961822509765625,101.58586502075195,101.65548324584961,101.71103477478027,102.19526290893555
1759167658.768737,1759167658.7791526,247.90096282958984,0.12230873107910156,0.07915496826171875,106.34398460388184,106.42313957214355,224.78604316711426,225.4927158355713
1759167659.0167866,1759167659.0243795,269.08040046691895,119.80724334716797,21.387577056884766,115.52619934082031,136.91377639770508,256.8705081939697,257.8310966491699
1759167659.2903447,1759167659.2954378,332.3025703430176,139.04285430908203,0.0762939453125,183.52437019348145,183.60066413879395,322.7810859680176,323.66299629211426
1759167659.6275954,1759167659.6324785,353.2414436340332,171.0195541381836,0.07390975952148438,161.16976737976074,161.24367713928223,332.40199089050293,340.686559677124
1759167659.9809732,1759167659.9904232,313.8570785522461,147.82285690307617,0.0667572021484375,153.26523780822754,153.33199501037598,301.29480361938477,302.17933654785156
1759167660.2966418,1759167660.306414,316.298246383667,144.0720558166504,0.07319450378417969,137.8641128540039,137.9373073577881,302.3223876953125,303.17163467407227
1759167660.6157782,1759167660.6172218,183.80069732666016,0.015020370483398438,0.07033348083496094,177.47735977172852,177.54769325256348,177.60348320007324,178.07388305664062
1759167660.7997382,1759167660.8050807,178.30729484558105,0.015020370483398438,0.07200241088867188,155.77292442321777,155.84492683410645,155.9007167816162,156.3715934753418
1759167660.9781938,1759167660.98307,185.84847450256348,0.015497207641601562,0.07009506225585938,175.46606063842773,175.5361557006836,175.59194564819336,176.07927322387695
1759167661.165637,1759167661.2034726,233.23893547058105,0.017642974853515625,0.07557868957519531,165.14348983764648,165.21906852722168,165.3273105621338,166.3527488708496
1759167661.4008129,1759167661.4102821,351.6509532928467,183.4731101989746,0.06771087646484375,141.86406135559082,141.93177223205566,325.5419731140137,339.8432731628418
1759167661.7525878,1759167661.9190633,333.21094512939453,0.08320808410644531,0.07009506225585938,148.15759658813477,148.22769165039062,148.71788024902344,299.8311519622803
1759167662.0896506,1759167662.0910852,193.2506561279297,0.015974044799804688,0.07081031799316406,148.86951446533203,148.9403247833252,148.99563789367676,149.47891235351562
1759167662.283057,1759167662.2880876,180.5427074432373,0.0152587890625,0.06914138793945312,159.12818908691406,159.19733047485352,159.24644470214844,159.74164009094238
1759167662.4637496,1759167662.4713554,399.1081714630127,270.6034183502197,0.06818771362304688,99.31540489196777,99.38359260559082,384.22083854675293,385.79416275024414
1759167662.869602,1759167662.8790193,152.573823928833,0.01430511474609375,0.07295608520507812,142.14420318603516,142.21715927124023,142.27533340454102,142.76599884033203
1759167663.0223558,1759167663.034053,156.50343894958496,0.015020370483398438,0.09608268737792969,136.87539100646973,136.97147369384766,137.01939582824707,137.5253200531006
1759167663.1809611,1759167663.192282,379.1835308074951,160.0630283355713,0.07104873657226562,199.56254959106445,199.63359832763672,359.94958877563477,360.9466552734375
1759167663.5618641,1759167663.736469,341.77231788635254,12.901067733764648,0.07200241088867188,141.27779006958008,141.34979248046875,154.44660186767578,160.41994094848633
1759167663.9037464,1759167663.9111762,170.6526279449463,0.015020370483398438,0.07295608520507812,155.5194854736328,155.5924415588379,155.64346313476562,156.12316131591797
1759167664.07576,1759167664.2204802,459.9170684814453,0.15091896057128906,0.07939338684082031,142.2271728515625,142.30656623840332,288.68794441223145,289.78681564331055
1759167664.544619,1759167664.5643342,291.0780906677246,137.53509521484375,0.06723403930664062,132.30133056640625,132.3685646057129,270.04218101501465,270.9496021270752
1759167664.8376482,1759167664.8563118,321.23875617980957,0.11372566223144531,0.07152557373046875,142.58670806884766,142.65823364257812,295.8981990814209,296.80562019348145
1759167665.1666012,1759167665.1730177,319.98419761657715,136.63196563720703,0.06651878356933594,143.05567741394043,143.12219619750977,279.8910140991211,305.28926849365234
1759167665.486747,1759167665.510192,332.8745365142822,0.11491775512695312,0.06985664367675781,142.16017723083496,142.23003387451172,286.81302070617676,287.51635551452637
1759167665.8256571,1759167665.829179,142.38929748535156,0.015735626220703125,0.06937980651855469,124.41611289978027,124.48549270629883,124.5415210723877,125.01859664916992
1759167665.9681945,1759167665.9730752,140.7794952392578,0.015735626220703125,0.06937980651855469,133.08429718017578,133.15367698669434,133.20302963256836,133.67629051208496
1759167666.1110303,1759167666.1153588,159.8505973815918,0.015735626220703125,0.07557868957519531,150.78353881835938,150.85911750793457,150.91753005981445,151.42440795898438
1759167666.2755945,1759167666.2795725,255.22255897521973,119.57049369812012,0.06532669067382812,128.47542762756348,128.5407543182373,248.24905395507812,249.14979934692383
1759167666.5317369,1759167666.5510027,180.00268936157227,0.015020370483398438,0.06985664367675781,157.48834609985352,157.55820274353027,157.65714645385742,158.2927703857422
1759167666.7136333,1759167666.7330966,192.22688674926758,0.015735626220703125,0.07104873657226562,157.71484375,157.78589248657227,157.8962802886963,167.07396507263184
1759167666.9079564,1759167666.9134338,351.0451316833496,162.2600555419922,0.06747245788574219,151.14259719848633,151.21006965637207,313.5991096496582,329.7860622406006
1759167667.2591047,1759167667.268149,147.5365161895752,0.0152587890625,0.07319450378417969,131.8380832672119,131.9112777709961,131.96587562561035,132.44104385375977
1759167667.4067934,1759167667.4136975,155.106782913208,0.015020370483398438,0.06961822509765625,141.6945457458496,141.76416397094727,141.82114601135254,142.30036735534668
1759167667.5697134,1759167667.5769336,448.20547103881836,272.40681648254395,0.06389617919921875,134.07015800476074,134.13405418395996,418.3158874511719,433.7170124053955
1759167668.0275836,1759167668.1871693,307.262659072876,0.09369850158691406,0.064849853515625,132.97390937805176,133.03875923156738,133.21161270141602,293.10154914855957
1759167668.3416462,1759167668.3430846,142.99869537353516,0.01621246337890625,0.07128715515136719,127.91204452514648,127.98333168029785,128.04007530212402,128.51214408874512
1759167668.484873,1759167668.6396308,305.55105209350586,0.09632110595703125,0.06580352783203125,126.39117240905762,126.45697593688965,126.62792205810547,286.76772117614746
1759167668.7910988,1759167668.8134787,193.47596168518066,0.014781951904296875,0.10323524475097656,139.89877700805664,140.00201225280762,161.91744804382324,162.4128818511963
1759167668.9875982,1759167669.01347,265.4600143432617,0.026226043701171875,0.07915496826171875,106.6586971282959,106.73785209655762,107.03015327453613,228.94930839538574
1759167669.2567456,1759167669.2775786,136.89851760864258,0.019550323486328125,0.08034706115722656,109.34877395629883,109.42912101745605,109.58409309387207,110.52918434143066
1759167669.3938022,1759167669.3985329,148.12445640563965,0.01621246337890625,0.0782012939453125,137.678861618042,137.7570629119873,137.81380653381348,138.3218765258789
1759167669.5457659,1759167669.5511985,162.11676597595215,0.01621246337890625,0.07128715515136719,135.97798347473145,136.0492706298828,136.10458374023438,136.61527633666992
1759167669.709637,1759167669.7150352,408.31685066223145,258.5926055908203,0.07009506225585938,118.88670921325684,118.9568042755127,377.74038314819336,383.79716873168945
1759167670.1215994,1759167670.1230524,152.29439735412598,0.0152587890625,0.06818771362304688,127.23898887634277,127.30717658996582,127.44879722595215,128.28946113586426
1759167670.276713,1759167670.2969792,170.32408714294434,0.014543533325195312,0.0705718994140625,124.8774528503418,124.94802474975586,124.99547004699707,125.44441223144531
1759167670.447306,1759167670.4521227,183.3491325378418,0.014066696166992188,0.07033348083496094,176.4988899230957,176.56922340393066,176.61643028259277,177.06775665283203
1759167670.6336353,1759167670.6351018,179.81600761413574,0.015735626220703125,0.07486343383789062,177.3829460144043,177.4578094482422,177.51741409301758,178.01904678344727
1759167670.8135712,1759167670.8220153,175.4169464111328,0.015974044799804688,0.07462501525878906,156.90922737121582,156.9838523864746,157.03535079956055,157.52744674682617
1759167670.990638,1759167670.9981067,147.45020866394043,0.014781951904296875,0.06914138793945312,131.09827041625977,131.16741180419922,131.28256797790527,131.96825981140137
1759167671.138236,1759167671.2965348,337.71491050720215,0.03743171691894531,0.06961822509765625,154.05559539794922,154.12521362304688,154.20794486999512,171.62418365478516
1759167671.4761004,1759167671.591716,294.5430278778076,0.03790855407714844,0.07128715515136719,175.40788650512695,175.47917366027832,175.57024955749512,192.0633316040039
1759167671.7708428,1759167671.777438,169.01803016662598,0.015020370483398438,0.07724761962890625,161.49449348449707,161.57174110412598,161.62681579589844,162.0790958404541
1759167671.9400072,1759167671.946978,204.26678657531738,0.0152587890625,0.06985664367675781,161.55529022216797,161.62514686584473,161.67354583740234,162.12773323059082
1759167672.152596,1759167672.1664736,343.5065746307373,163.39778900146484,0.0667572021484375,159.77144241333008,159.83819961547852,323.3811855316162,324.24020767211914
1759167672.496235,1759167672.525075,205.34992218017578,0.016450881958007812,0.07677078247070312,159.49702262878418,159.57379341125488,159.6240997314453,160.15958786010742
1759167672.7035975,1759167672.7225401,399.3113040924072,0.2307891845703125,0.07081031799316406,138.22460174560547,138.29541206359863,373.4591007232666,374.7081756591797
1759167673.112598,1759167673.121801,203.33623886108398,0.014543533325195312,0.07081031799316406,173.8886833190918,173.95949363708496,174.0560531616211,174.55577850341797
1759167673.3160381,1759167673.4730675,407.60040283203125,0.11038780212402344,0.06628036499023438,118.89791488647461,118.96419525146484,119.3385124206543,358.25610160827637
1759167673.7325976,1759167673.7376926,405.29942512512207,113.35253715515137,0.0667572021484375,146.071195602417,146.13795280456543,393.6195373535156,394.67453956604004
1759167674.149606,1759167674.154213,169.27242279052734,0.015735626220703125,0.06961822509765625,163.66958618164062,163.73920440673828,163.79857063293457,164.2923355102539
1759167674.319423,1759167674.3324664,152.6646614074707,0.016450881958007812,0.07939338684082031,132.2157382965088,132.2951316833496,132.40671157836914,133.07523727416992
1759167674.4722393,1759167674.4790952,171.13208770751953,0.015020370483398438,0.07033348083496094,163.3455753326416,163.41590881347656,163.46502304077148,163.9382839202881
1759167674.6446424,1759167674.6571226,176.95927619934082,0.015497207641601562,0.06937980651855469,163.52486610412598,163.59424591064453,163.65313529968262,164.11948204040527
1759167674.821751,1759167674.8298569,172.18565940856934,0.014543533325195312,0.07224082946777344,156.98981285095215,157.06205368041992,157.10949897766113,157.5634479522705
1759167674.994086,1759167675.1468177,319.55981254577637,0.03600120544433594,0.06961822509765625,164.78919982910156,164.85881805419922,164.94417190551758,183.76779556274414
1759167675.3138056,1759167675.3188484,159.8362922668457,0.014781951904296875,0.07414817810058594,148.98228645324707,149.05643463134766,149.1110324859619,149.57690238952637
1759167675.4737966,1759167675.478903,187.78443336486816,0.015020370483398438,0.07200241088867188,160.13336181640625,160.20536422729492,160.25805473327637,160.72487831115723
1759167675.6617506,1759167675.6670823,177.73079872131348,0.015020370483398438,0.07319450378417969,167.02651977539062,167.0997142791748,167.14882850646973,167.69123077392578
1759167675.8405068,1759167675.845271,178.31134796142578,0.015497207641601562,0.07677078247070312,159.25145149230957,159.32822227478027,159.38568115234375,159.87133979797363
1759167676.0189734,1759167676.0260816,170.13978958129883,0.016450881958007812,0.07510185241699219,149.65009689331055,149.72519874572754,149.7797966003418,150.24542808532715
1759167676.1905947,1759167676.1920419,201.9824981689453,0.0152587890625,0.07343292236328125,175.46582221984863,175.5392551422119,175.59289932250977,176.06139183044434
1759167676.3927333,1759167676.3980865,206.00533485412598,0.014781951904296875,0.07176399230957031,193.8493251800537,193.92108917236328,193.9997673034668,194.52929496765137
1759167676.5990334,1759167676.6084127,207.838773727417,0.018596649169921875,0.07748603820800781,196.17128372192383,196.24876976013184,196.31695747375488,197.39627838134766
1759167676.8096812,1759167676.8133028,206.96043968200684,0.017404556274414062,0.06985664367675781,185.65106391906738,185.72092056274414,185.7891082763672,186.79046630859375
1759167677.0167935,1759167677.1592228,308.78663063049316,0.04696846008300781,0.06771087646484375,156.33487701416016,156.402587890625,156.68296813964844,298.1116771697998
1759167677.3257475,1759167677.3311648,162.18137741088867,0.015735626220703125,0.07367134094238281,152.37116813659668,152.44483947753906,152.49991416931152,152.97651290893555
1759167677.4880836,1759167677.4931667,204.79846000671387,0.015735626220703125,0.07510185241699219,196.85006141662598,196.92516326904297,196.98095321655273,197.45969772338867
1759167677.6930394,1759167677.6961114,198.67897033691406,0.0152587890625,0.07557868957519531,187.0565414428711,187.1321201324463,187.1812343597412,187.65830993652344
1759167677.891871,1759167677.8933682,185.70518493652344,0.015974044799804688,0.0705718994140625,181.96797370910645,182.0385456085205,182.08813667297363,182.61241912841797
1759167678.0796413,1759167678.0963697,217.00358390808105,0.015735626220703125,0.06914138793945312,196.44951820373535,196.5186595916748,196.57039642333984,197.04914093017578
1759167678.2968006,1759167678.3007598,216.06802940368652,0.018358230590820312,0.07200241088867188,179.42285537719727,179.49485778808594,179.5632839202881,180.35054206848145
1759167678.5131335,1759167678.514578,190.07134437561035,0.015020370483398438,0.07271766662597656,187.67929077148438,187.75200843811035,187.80064582824707,188.2772445678711
1759167678.703358,1759167678.7048435,183.7937831878662,0.014781951904296875,0.07104873657226562,159.3320369720459,159.40308570861816,159.45100784301758,159.9438190460205
1759167678.8872974,1759167678.8920858,155.34305572509766,0.014781951904296875,0.07367134094238281,134.58752632141113,134.66119766235352,134.71460342407227,135.18905639648438
1759167679.0435946,1759167679.0485575,125.04029273986816,0.015497207641601562,0.07152557373046875,112.17403411865234,112.24555969238281,112.29944229125977,112.77151107788086
1759167679.1687837,1759167679.1734424,153.7954807281494,0.015020370483398438,0.08654594421386719,143.25714111328125,143.34368705749512,143.4030532836914,143.890380859375
1759167679.3227377,1759167679.3261926,173.173189163208,0.015974044799804688,0.07128715515136719,164.77489471435547,164.84618186950684,164.9026870727539,165.42744636535645
1759167679.4960606,1759167679.5010874,186.57922744750977,0.0152587890625,0.07224082946777344,178.69853973388672,178.7707805633545,178.82490158081055,179.30245399475098
1759167679.682791,1759167679.6880958,175.92692375183105,0.015974044799804688,0.07462501525878906,139.95790481567383,140.03252983093262,140.08331298828125,140.5620574951172
1759167679.8588674,1759167679.864072,187.028169631958,0.0152587890625,0.07271766662597656,154.7081470489502,154.78086471557617,154.8302173614502,155.29227256774902
1759167680.0460424,1759167680.0484872,168.5347557067871,0.020742416381835938,0.07033348083496094,158.461332321167,158.53166580200195,158.58936309814453,159.04569625854492
1759167680.2147331,1759167680.2183242,182.90424346923828,0.017881393432617188,0.06961822509765625,159.4223976135254,159.49201583862305,159.55638885498047,160.35723686218262
1759167680.4005952,1759167680.402037,180.04631996154785,0.015020370483398438,0.06961822509765625,144.0563201904297,144.12593841552734,144.1786289215088,144.6542739868164
1759167680.5807972,1759167680.5860884,175.24099349975586,0.015020370483398438,0.07390975952148438,159.79862213134766,159.87253189086914,159.92164611816406,160.3987216949463
1759167680.7561984,1759167680.7623942,174.38054084777832,0.01621246337890625,0.0743865966796875,133.47506523132324,133.54945182800293,133.6076259613037,134.0932846069336
1759167680.9307349,1759167680.939462,154.1306972503662,0.017642974853515625,0.07772445678710938,142.06504821777344,142.14277267456055,142.1949863433838,146.98338508605957
1759167681.084967,1759167681.0901926,155.6103229522705,0.015020370483398438,0.07081031799316406,115.2031421661377,115.27395248413086,142.35305786132812,142.8203582763672
1759167681.2407322,1759167681.2471197,151.84593200683594,0.014543533325195312,0.07104873657226562,136.02042198181152,136.0914707183838,136.14678382873535,136.62362098693848
1759167681.3928561,1759167681.4074512,163.7718677520752,0.015020370483398438,0.08463859558105469,137.43281364440918,137.51745223999023,137.62784004211426,138.28492164611816
1759167681.5596173,1759167681.5620952,213.27829360961914,0.0152587890625,0.07534027099609375,202.8954029083252,202.9707431793213,203.02104949951172,203.49454879760742
1759167681.7730403,1759167681.77843,279.5875072479248,151.57556533813477,0.06794929504394531,114.12858963012695,114.1965389251709,265.90633392333984,266.7820453643799
1759167682.052782,1759167682.0622742,182.79147148132324,0.014781951904296875,0.07390975952148438,167.60897636413574,167.68288612365723,167.73247718811035,168.19190979003906
1759167682.2357287,1759167682.2371333,169.91281509399414,0.01621246337890625,0.07200241088867188,160.6464385986328,160.71844100952148,160.77566146850586,161.27872467041016
1759167682.405797,1759167682.4181154,226.25303268432617,0.015735626220703125,0.07915496826171875,180.89675903320312,180.97591400146484,181.02550506591797,181.49757385253906
1759167682.6321974,1759167682.6336894,186.71512603759766,0.015020370483398438,0.07295608520507812,179.71038818359375,179.78334426879883,180.9711456298828,181.65206909179688
1759167682.8190162,1759167682.8241434,192.55948066711426,0.015974044799804688,0.07104873657226562,183.32958221435547,183.40063095092773,183.457612991333,183.9301586151123
1759167683.0117323,1759167683.0131514,193.83811950683594,0.015497207641601562,0.06961822509765625,174.85761642456055,174.9272346496582,174.97658729553223,175.44078826904297
1759167683.2057297,1759167683.2093115,203.90725135803223,0.017642974853515625,0.0705718994140625,197.91531562805176,197.98588752746582,198.05097579956055,198.82774353027344
1759167683.4115965,1759167683.4200559,354.0470600128174,0.02574920654296875,0.06937980651855469,156.17609024047852,156.24547004699707,156.49080276489258,328.84955406188965
1759167683.7657964,1759167683.7772799,344.25878524780273,0.025033950805664062,0.07009506225585938,151.1223316192627,151.19242668151855,174.1318702697754,326.35021209716797
1759167684.113601,1759167684.2672493,347.34344482421875,0.03695487976074219,0.07748603820800781,188.79175186157227,188.86923789978027,188.96222114562988,193.9685344696045
1759167684.4611533,1759167684.4628901,183.43520164489746,0.016927719116210938,0.07843971252441406,167.11831092834473,167.19675064086914,167.26231575012207,167.85621643066406
1759167684.6447945,1759167684.771871,264.8510932922363,0.0362396240234375,0.08058547973632812,134.93680953979492,135.01739501953125,135.10560989379883,139.06431198120117
1759167684.9098082,1759167684.9157512,166.83268547058105,0.015974044799804688,0.07605552673339844,145.22933959960938,145.30539512634277,145.36476135253906,145.87140083312988
1759167685.0767968,1759167685.0801165,174.84426498413086,0.016450881958007812,0.07271766662597656,145.9963321685791,146.06904983520508,146.12698554992676,146.60215377807617
1759167685.2517974,1759167685.2570906,178.32088470458984,0.015974044799804688,0.07128715515136719,162.8859043121338,162.95719146728516,163.01393508911133,163.4972095489502
1759167685.4316497,1759167685.43406,174.38483238220215,0.016689300537109375,0.07987022399902344,164.0946865081787,164.17455673217773,164.2310619354248,164.69192504882812
1759167685.6061654,1759167685.6233628,291.4421558380127,0.118255615234375,0.08130073547363281,133.44049453735352,133.52179527282715,269.4368362426758,270.31755447387695
1759167685.902597,1759167685.9056742,215.7299518585205,101.44615173339844,0.06723403930664062,100.09026527404785,100.15749931335449,201.73358917236328,205.84440231323242
1759167686.1257246,1759167686.1328626,259.6871852874756,107.26761817932129,0.06699562072753906,135.2212429046631,135.28823852539062,242.69676208496094,246.80304527282715
1759167686.3966,1759167686.4142554,160.03656387329102,0.015735626220703125,0.07891654968261719,133.9113712310791,133.99028778076172,134.03892517089844,134.52482223510742
1759167686.556788,1759167686.5625877,166.0778522491455,0.016689300537109375,0.07557868957519531,154.22511100769043,154.30068969726562,154.3593406677246,154.8779010772705
1759167686.723017,1759167686.7272475,173.0179786682129,0.015020370483398438,0.07653236389160156,157.87029266357422,157.94682502746582,158.0030918121338,158.51497650146484
1759167686.8986402,1759167686.9047184,333.07623863220215,0.026226043701171875,0.06961822509765625,142.32659339904785,142.3962116241455,142.63629913330078,306.3547611236572
1759167687.2322576,1759167687.2503312,182.38449096679688,0.021696090698242188,0.12373924255371094,160.06803512573242,160.19177436828613,160.25924682617188,160.94589233398438
1759167687.414797,1759167687.4192488,168.8406467437744,0.016450881958007812,0.07748603820800781,133.7580680847168,133.8355541229248,133.894681930542,134.3998908996582
1759167687.5837862,1759167687.5890841,156.2058925628662,0.015020370483398438,0.0743865966796875,149.9650478363037,150.0394344329834,150.08926391601562,150.56467056274414
1759167687.7402594,1759167687.7470856,151.37767791748047,0.015020370483398438,0.06985664367675781,128.9052963256836,128.97515296936035,129.0273666381836,129.5015811920166
1759167687.8917892,1759167687.8970897,173.84934425354004,0.015735626220703125,0.07104873657226562,161.16571426391602,161.23676300048828,161.29374504089355,161.80920600891113
1759167688.0657887,1759167688.0741398,199.85294342041016,0.0152587890625,0.072479248046875,183.04777145385742,183.1202507019043,183.17198753356934,183.6552619934082
1759167688.2657964,1759167688.2871318,206.1314582824707,0.015497207641601562,0.07200241088867188,183.82668495178223,183.8986873626709,183.95209312438965,184.4325065612793
1759167688.4736135,1759167688.482036,205.02614974975586,0.015735626220703125,0.07104873657226562,175.17995834350586,175.25100708007812,175.30131340026855,175.77195167541504
1759167688.6787934,1759167688.6843297,222.11432456970215,0.015497207641601562,0.072479248046875,189.04757499694824,189.12005424499512,212.6789093017578,213.17172050476074
1759167688.9046924,1759167688.9152665,348.9539623260498,167.53625869750977,0.06628036499023438,166.80192947387695,166.8682098388672,334.5472812652588,335.39724349975586
1759167689.2585979,1759167689.2636218,327.5730609893799,137.9377841949463,0.06532669067382812,155.40695190429688,155.4722785949707,293.82944107055664,322.30472564697266
1759167689.5871441,1759167689.6041267,190.8104419708252,0.015735626220703125,0.07319450378417969,151.2923240661621,151.3655185699463,151.42083168029785,151.8876552581787
1759167689.7781487,1759167689.7831142,161.78607940673828,0.014781951904296875,0.07104873657226562,134.20534133911133,134.2763900756836,134.33051109313965,134.82213020324707
1759167689.9401493,1759167689.9464157,179.49366569519043,0.014543533325195312,0.08797645568847656,171.38934135437012,171.4773178100586,171.53191566467285,171.99993133544922
1759167690.1215951,1759167690.1251078,178.93314361572266,0.014543533325195312,0.07033348083496094,137.29238510131836,137.36271858215332,159.3174934387207,159.8336696624756
1759167690.3027098,1759167690.312492,176.92303657531738,0.022649765014648438,0.07176399230957031,156.34894371032715,156.42070770263672,156.48388862609863,156.9690704345703
1759167690.480319,1759167690.5131261,192.55924224853516,0.0152587890625,0.06842613220214844,141.27635955810547,141.34478569030762,156.4173698425293,156.89897537231445
1759167690.6755202,1759167690.6771038,188.05956840515137,0.014543533325195312,0.07176399230957031,177.3688793182373,177.44064331054688,177.50310897827148,178.03573608398438
1759167690.8637373,1759167691.016381,330.16419410705566,0.036716461181640625,0.07200241088867188,162.10579872131348,162.17780113220215,162.2614860534668,165.0686264038086
1759167691.1976366,1759167691.1990545,134.40585136413574,0.015497207641601562,0.07033348083496094,124.33576583862305,124.40609931945801,124.4666576385498,124.93038177490234
1759167691.335597,1759167691.337034,168.04742813110352,0.014543533325195312,0.07224082946777344,161.53573989868164,161.6079807281494,161.70620918273926,162.38021850585938
1759167691.5056489,1759167691.5094335,169.98934745788574,0.015735626220703125,0.10204315185546875,159.13724899291992,159.2392921447754,159.29388999938965,159.7919464111328
1759167691.6777961,1759167691.6874537,140.75303077697754,0.02002716064453125,0.13065338134765625,129.77981567382812,129.91046905517578,129.97031211853027,130.68389892578125
1759167691.8188903,1759167691.8400385,157.96327590942383,0.015974044799804688,0.07605552673339844,115.84043502807617,115.91649055480957,116.0280704498291,116.73569679260254
1759167691.9845946,1759167691.9894044,283.0209732055664,137.58444786071777,0.0667572021484375,134.48238372802734,134.54914093017578,272.26758003234863,273.06246757507324
1759167692.277384,1759167692.2950342,161.2565517425537,0.015020370483398438,0.06985664367675781,118.97778511047363,119.04764175415039,119.10104751586914,119.56667900085449
1759167692.4387958,1759167692.4455342,152.00543403625488,0.017881393432617188,0.07772445678710938,138.66019248962402,138.73791694641113,138.79895210266113,139.33134078979492
1759167692.5950305,1759167692.6143785,153.55777740478516,0.015497207641601562,0.07200241088867188,113.54398727416992,113.6159896850586,113.67130279541016,114.14575576782227
1759167692.7486875,1759167692.7553225,151.22747421264648,0.015020370483398438,0.06985664367675781,133.94713401794434,134.0169906616211,134.0651512145996,134.5672607421875
1759167692.9000595,1759167692.9014604,158.51497650146484,0.015735626220703125,0.08559226989746094,152.8642177581787,152.94981002807617,153.00583839416504,153.5017490386963
1759167693.0626361,1759167693.06964,169.236421585083,0.0152587890625,0.07176399230957031,161.2873077392578,161.35907173156738,161.4084243774414,161.88597679138184
1759167693.2320168,1759167693.2362099,150.91824531555176,0.014543533325195312,0.07200241088867188,145.76196670532227,145.83396911621094,145.88594436645508,146.3773250579834
1759167693.3830788,1759167693.3871055,148.01621437072754,0.016689300537109375,0.06961822509765625,143.07284355163574,143.1424617767334,143.19872856140137,143.7516212463379
1759167693.5312402,1759167693.5389912,176.47480964660645,0.014781951904296875,0.07081031799316406,160.70842742919922,160.77923774719238,160.83455085754395,161.3023281097412
1759167693.7078633,1759167693.713087,154.77371215820312,0.0152587890625,0.07176399230957031,146.13723754882812,146.2090015411377,146.26359939575195,146.7287540435791
1759167693.8627865,1759167693.8679929,146.46291732788086,0.017404556274414062,0.0705718994140625,137.28904724121094,137.359619140625,137.41016387939453,139.63699340820312
1759167694.009435,1759167694.013337,150.20036697387695,0.014543533325195312,0.0705718994140625,142.11726188659668,142.18783378601074,142.2419548034668,142.7597999572754
1759167694.159783,1759167694.1650693,153.77044677734375,0.015020370483398438,0.07081031799316406,147.39704132080078,147.46785163879395,147.52626419067383,148.00524711608887
1759167694.3156462,1759167694.3201299,178.99298667907715,0.016450881958007812,0.07390975952148438,149.35755729675293,149.4314670562744,149.48272705078125,149.97124671936035
1759167694.4947956,1759167694.500117,209.92588996887207,0.015735626220703125,0.0705718994140625,177.49452590942383,177.5650978088379,177.61945724487305,178.08842658996582
1759167694.7086394,1759167694.710055,154.4036865234375,0.015497207641601562,0.07176399230957031,138.73982429504395,138.81158828735352,138.86213302612305,139.3260955810547
1759167694.8633132,1759167694.8680756,136.20924949645996,0.01621246337890625,0.07224082946777344,130.52725791931152,130.5994987487793,130.64956665039062,131.11495971679688
1759167694.9996686,1759167695.0046222,163.96737098693848,0.016689300537109375,0.07224082946777344,136.6746425628662,136.74688339233398,136.80243492126465,137.30573654174805
1759167695.1637857,1759167695.1690824,171.2501049041748,0.015974044799804688,0.07390975952148438,144.73676681518555,144.81067657470703,144.8676586151123,145.3409194946289
1759167695.3366354,1759167695.3420806,161.22889518737793,0.014781951904296875,0.07152557373046875,152.61316299438477,152.68468856811523,152.73404121398926,153.1980037689209
1759167695.4980128,1759167695.504002,138.5633945465088,0.0152587890625,0.07104873657226562,129.807710647583,129.87875938415527,129.93407249450684,130.40709495544434
1759167695.6367307,1759167695.6440334,165.13681411743164,0.0152587890625,0.07605552673339844,125.23078918457031,125.30684471130371,125.36144256591797,153.9022922515869
1759167695.802016,1759167695.807083,149.02353286743164,0.015020370483398438,0.07128715515136719,129.67252731323242,129.7438144683838,129.79745864868164,130.2649974822998
1759167695.9511876,1759167695.9590256,149.85036849975586,0.015497207641601562,0.07748603820800781,127.89249420166016,127.96998023986816,128.02529335021973,128.5099983215332
1759167696.1025982,1759167696.1060698,158.34307670593262,0.014543533325195312,0.06961822509765625,149.81794357299805,149.8875617980957,149.93739128112793,150.39587020874023
1759167696.2610896,1759167696.2761269,164.80731964111328,0.014781951904296875,0.0705718994140625,145.33352851867676,145.40410041809082,145.45202255249023,145.90811729431152
1759167696.426044,1759167696.4308488,154.59752082824707,0.014781951904296875,0.07152557373046875,143.1281566619873,143.19968223571777,143.25523376464844,143.7234878540039
1759167696.58079,1759167696.5868266,164.28136825561523,0.014543533325195312,0.07009506225585938,153.84149551391602,153.91159057617188,153.9633274078369,154.433012008667
1759167696.7451732,1759167696.7502272,169.86989974975586,0.014543533325195312,0.07128715515136719,159.50703620910645,159.5783233642578,159.63363647460938,160.13097763061523
1759167696.9151747,1759167696.9243305,321.1648464202881,0.10919570922851562,0.08249282836914062,131.9730281829834,132.05552101135254,297.81460762023926,298.50268363952637
1759167697.2454512,1759167697.3958566,305.53650856018066,0.1761913299560547,0.07367134094238281,145.003080368042,145.07675170898438,147.8126049041748,297.3449230194092
1759167697.5541794,1759167697.5684686,368.75128746032715,161.17382049560547,0.07224082946777344,154.53124046325684,154.6034812927246,315.9162998199463,341.5236473083496
1759167697.923036,1759167697.9245245,191.08271598815918,0.015020370483398438,0.06914138793945312,162.4469757080078,162.51611709594727,162.6121997833252,163.26308250427246
1759167698.1186001,1759167698.2813337,516.2968635559082,166.08452796936035,0.06532669067382812,156.85582160949707,156.9211483001709,323.1515884399414,372.93529510498047
1759167698.64215,1759167698.6555612,405.00640869140625,249.93658065795898,10.092496871948242,126.55401229858398,136.64650917053223,386.77334785461426,387.90011405944824
1759167699.0606036,1759167699.2028923,329.08105850219727,0.03910064697265625,0.07319450378417969,157.0746898651123,157.14788436889648,157.2420597076416,158.5676670074463
1759167699.3898606,1759167699.395189,195.0821876525879,0.017404556274414062,0.072479248046875,166.95332527160645,167.02580451965332,167.08111763000488,167.57440567016602
1759167699.5896049,1759167699.753436,346.1112976074219,0.10919570922851562,0.06771087646484375,152.56619453430176,152.6339054107666,152.82225608825684,327.6369571685791
1759167699.939614,1759167699.9440749,212.31532096862793,0.014781951904296875,0.07128715515136719,204.36811447143555,204.4394016265869,204.4975757598877,204.99157905578613
1759167700.1556408,1759167700.1661055,209.40923690795898,0.014781951904296875,0.06890296936035156,171.34594917297363,171.41485214233398,171.4632511138916,171.93007469177246
1759167700.3676403,1759167700.3769968,194.0019130706787,0.0152587890625,0.06961822509765625,174.31950569152832,174.38912391662598,174.4399070739746,174.91459846496582
1759167700.5618024,1759167700.5670924,169.24571990966797,0.015974044799804688,0.07152557373046875,152.72927284240723,152.8007984161377,152.85658836364746,153.32722663879395
1759167700.7326381,1759167700.7410545,182.40642547607422,0.015497207641601562,0.06914138793945312,166.5818691253662,166.65101051330566,166.69964790344238,167.1614646911621
1759167700.9182367,1759167700.9231358,164.63303565979004,0.015020370483398438,0.0705718994140625,156.6760540008545,156.74662590026855,156.80360794067383,157.26017951965332
1759167701.08302,1759167701.0940907,168.3483123779297,0.015974044799804688,0.0705718994140625,146.3158130645752,146.38638496398926,156.42380714416504,156.94212913513184
1759167701.2515314,1759167701.2639964,170.10951042175293,0.015497207641601562,0.07081031799316406,149.74737167358398,149.81818199157715,149.8696804046631,150.34127235412598
1759167701.421795,1759167701.4248188,171.8442440032959,0.015497207641601562,0.07128715515136719,146.67558670043945,146.74687385559082,146.8045711517334,147.28856086730957
1759167701.5937936,1759167701.5988076,156.18133544921875,0.016689300537109375,0.07414817810058594,150.2220630645752,150.29621124267578,150.35700798034668,150.85768699645996
1759167701.7501204,1759167701.7540753,178.91407012939453,0.015020370483398438,0.07176399230957031,163.8631820678711,163.93494606018066,163.99097442626953,164.47877883911133
1759167701.9291806,1759167701.9340658,162.45603561401367,0.0152587890625,0.07128715515136719,154.18219566345215,154.25348281860352,154.30903434753418,154.78157997131348
1759167702.0917854,1759167702.0979934,189.8519992828369,0.0152587890625,0.06961822509765625,180.34958839416504,180.4192066192627,180.47499656677246,180.9546947479248
1759167702.2817888,1759167702.2870896,159.79456901550293,0.016689300537109375,0.07319450378417969,153.53703498840332,153.6102294921875,153.6693572998047,154.15000915527344
1759167702.4417288,1759167702.44609,160.9060764312744,0.015735626220703125,0.07081031799316406,150.43401718139648,150.50482749938965,150.56228637695312,151.03983879089355
1759167702.6027832,1759167702.609982,168.0915355682373,0.014543533325195312,0.0705718994140625,158.40625762939453,158.4768295288086,158.5369110107422,158.9972972869873
1759167702.7722726,1759167702.7760718,172.68848419189453,0.014781951904296875,0.07557868957519531,167.94586181640625,168.02144050598145,168.0772304534912,168.53570938110352
1759167702.947637,1759167702.9520755,170.93849182128906,0.014781951904296875,0.07772445678710938,158.88285636901855,158.96058082580566,159.01589393615723,159.48200225830078
1759167703.118724,1759167703.1230838,206.8493366241455,0.016689300537109375,0.07081031799316406,172.78575897216797,172.85656929016113,172.91784286499023,173.3841896057129
1759167703.325675,1759167703.3411374,159.40499305725098,0.015974044799804688,0.07128715515136719,139.5277976989746,139.59908485412598,139.71543312072754,140.42353630065918
1759167703.485228,1759167703.4890883,144.4089412689209,0.015497207641601562,0.07081031799316406,136.35516166687012,136.42597198486328,136.48271560668945,136.95669174194336
1759167703.6297867,1759167703.6364248,133.50510597229004,0.015497207641601562,0.0858306884765625,109.6503734588623,109.73620414733887,109.84992980957031,126.4946460723877
1759167703.7634623,1759167703.7689886,154.80661392211914,0.0152587890625,0.06747245788574219,128.63922119140625,128.706693649292,128.76033782958984,129.25243377685547
1759167703.9184566,1759167703.9230773,178.18236351013184,0.015020370483398438,0.06985664367675781,165.39502143859863,165.4648780822754,165.5428409576416,166.05353355407715
1759167704.0988457,1759167704.109281,298.27117919921875,0.024557113647460938,0.07033348083496094,131.0575008392334,131.12783432006836,150.39348602294922,273.97632598876953
1759167704.398639,1759167704.4071383,154.99019622802734,0.015497207641601562,0.07128715515136719,135.86807250976562,135.939359664917,136.05523109436035,136.72947883605957
1759167704.5537827,1759167704.5591514,166.8558120727539,0.014781951904296875,0.07128715515136719,147.7494239807129,147.82071113586426,147.8743553161621,148.3592987060547
1759167704.7207687,1759167704.7305303,206.96568489074707,0.0152587890625,0.06794929504394531,181.08773231506348,181.15568161010742,181.27894401550293,182.0969581604004
1759167704.928716,1759167704.933268,175.3098964691162,0.015974044799804688,0.0972747802734375,169.79384422302246,169.8911190032959,169.94500160217285,170.5300807952881
1759167705.107438,1759167705.11153,158.81013870239258,0.016450881958007812,0.07295608520507812,153.77092361450195,153.84387969970703,153.9006233215332,154.39629554748535
1759167705.2663941,1759167705.2718453,180.18388748168945,0.014781951904296875,0.07104873657226562,144.78611946105957,144.85716819763184,144.9108123779297,145.3871726989746
1759167705.4467328,1759167705.4501498,150.50005912780762,0.014543533325195312,0.07104873657226562,146.11029624938965,146.1813449859619,146.23427391052246,146.70586585998535
1759167705.5974994,1759167705.6033976,171.36335372924805,0.014781951904296875,0.07128715515136719,160.91179847717285,160.98308563232422,161.03720664978027,161.53550148010254
1759167705.7690108,1759167705.7740886,183.62188339233398,0.015735626220703125,0.07462501525878906,155.6551456451416,155.7297706604004,155.83324432373047,156.47101402282715
1759167705.9549904,1759167705.9580731,188.65442276000977,0.015020370483398438,0.07104873657226562,171.9064712524414,171.97751998901367,172.03211784362793,172.49512672424316
1759167706.1437964,1759167706.1493435,198.90236854553223,0.014781951904296875,0.07605552673339844,170.36032676696777,170.43638229370117,170.53937911987305,171.25868797302246
1759167706.3466392,1759167706.3630702,199.26857948303223,0.015020370483398438,0.07081031799316406,176.71990394592285,176.79071426391602,176.84412002563477,177.31118202209473
1759167706.5460582,1759167706.551225,181.8370819091797,0.015497207641601562,0.06961822509765625,171.45609855651855,171.5257167816162,171.58842086791992,172.11389541625977
1759167706.7307389,1759167706.877992,310.840368270874,0.09560585021972656,0.0667572021484375,129.99892234802246,130.0656795501709,130.23781776428223,296.0057258605957
1759167707.0417347,1759167707.2144876,352.19860076904297,0.5831718444824219,0.07319450378417969,172.2414493560791,172.31464385986328,174.1018295288086,344.49100494384766
1759167707.394041,1759167707.5563672,338.0439281463623,0.03600120544433594,0.07343292236328125,161.29779815673828,161.37123107910156,161.46183013916016,183.87317657470703
1759167707.7322412,1759167707.7374275,166.63551330566406,0.01621246337890625,0.07796287536621094,139.2679214477539,139.34588432312012,139.39619064331055,139.8642063140869
1759167707.8996,1759167707.9041243,188.97676467895508,0.015020370483398438,0.07176399230957031,178.35593223571777,178.42769622802734,178.4811019897461,178.94244194030762
1759167708.0887318,1759167708.0901885,189.75353240966797,0.014543533325195312,0.07200241088867188,187.32500076293945,187.39700317382812,187.45160102844238,187.92486190795898
1759167708.2806463,1759167708.2850964,182.07406997680664,0.01621246337890625,0.07224082946777344,146.83008193969727,146.90232276916504,146.96025848388672,147.43828773498535
1759167708.4628704,1759167708.4668677,169.39067840576172,0.014781951904296875,0.072479248046875,164.45422172546387,164.52670097351074,164.5815372467041,165.05885124206543
1759167708.633641,1759167708.6407666,189.10646438598633,0.016689300537109375,0.07128715515136719,163.2997989654541,163.37108612060547,163.42544555664062,167.6325798034668
1759167708.8266387,1759167708.8284225,151.0910987854004,0.015020370483398438,0.0782012939453125,146.19088172912598,146.2690830230713,146.3172435760498,146.77119255065918
1759167708.9778748,1759167708.9830728,125.22673606872559,0.016450881958007812,0.07081031799316406,114.66145515441895,114.73226547241211,114.78710174560547,115.24772644042969
1759167709.1032336,1759167709.1150513,130.63693046569824,0.016450881958007812,0.07367134094238281,100.32510757446289,100.39877891540527,100.47292709350586,100.95620155334473
1759167709.2340195,1759167709.246545,147.01557159423828,0.0171661376953125,0.07009506225585938,130.42736053466797,130.49745559692383,130.5530071258545,133.03613662719727
1759167709.381181,1759167709.389561,167.74320602416992,0.01621246337890625,0.07557868957519531,130.92994689941406,131.00552558898926,131.06250762939453,131.55293464660645
1759167709.5496333,1759167709.5600038,141.94679260253906,0.015020370483398438,0.06985664367675781,128.84020805358887,128.91006469726562,128.9675235748291,129.43720817565918
1759167709.6917348,1759167709.6970747,170.90201377868652,0.0152587890625,0.06985664367675781,145.54929733276367,145.61915397644043,145.6749439239502,146.14105224609375
1759167709.862785,1759167709.8681836,155.8518409729004,0.015020370483398438,0.07176399230957031,146.58737182617188,146.65913581848145,146.7146873474121,147.17936515808105
1759167710.018785,1759167710.0297363,354.79068756103516,0.025510787963867188,0.07009506225585938,177.46686935424805,177.5369644165039,177.77371406555176,339.4632339477539
1759167710.3737276,1759167710.3793972,202.8510570526123,0.015020370483398438,0.07009506225585938,190.8714771270752,190.94157218933105,190.9949779510498,191.4665699005127
1759167710.5767355,1759167710.5825572,223.13261032104492,0.018358230590820312,0.0705718994140625,179.37493324279785,179.4455051422119,179.51393127441406,180.27758598327637
1759167710.7999706,1759167710.8013976,189.5618438720703,0.015735626220703125,0.07200241088867188,169.79241371154785,169.86441612243652,169.9211597442627,170.38917541503906
1759167710.989684,1759167710.9954932,207.08870887756348,0.020265579223632812,0.07200241088867188,195.3573226928711,195.42932510375977,195.48702239990234,195.94764709472656
1759167711.198638,1759167711.213044,197.62563705444336,0.015735626220703125,0.06985664367675781,182.27481842041016,182.3446750640869,182.39998817443848,182.8770637512207
1759167711.3964138,1759167711.3978956,185.63604354858398,0.015497207641601562,0.07033348083496094,170.1030731201172,170.17340660095215,170.22418975830078,170.70841789245605
1759167711.5833201,1759167711.5887241,181.38980865478516,0.015020370483398438,0.07081031799316406,153.93900871276855,154.00981903076172,154.06394004821777,154.53863143920898
1759167711.7648556,1759167711.7693632,166.72253608703613,0.014781951904296875,0.07033348083496094,150.42495727539062,150.4952907562256,150.5427360534668,150.99835395812988
1759167711.9317439,1759167711.9331453,195.62363624572754,0.015020370483398438,0.07295608520507812,188.71378898620605,188.78674507141113,188.8434886932373,189.30792808532715
1759167712.1286402,1759167712.1301208,188.33494186401367,0.015974044799804688,0.07128715515136719,183.56060981750488,183.63189697265625,183.7315559387207,184.2663288116455
1759167712.3198183,1759167712.3259807,190.81711769104004,0.0152587890625,0.07033348083496094,181.53619766235352,181.60653114318848,181.70428276062012,182.33537673950195
1759167712.5107865,1759167712.545369,232.79118537902832,0.017881393432617188,0.07700920104980469,159.69419479370117,159.77120399475098,159.8379611968994,160.61758995056152
1759167712.7437367,1759167712.749065,173.1724739074707,0.01430511474609375,0.06985664367675781,163.4528636932373,163.52272033691406,163.57088088989258,164.02506828308105
1759167712.9199383,1759167712.925078,173.69937896728516,0.0152587890625,0.0705718994140625,165.91644287109375,165.9870147705078,166.0444736480713,166.51487350463867
1759167713.0937922,1759167713.0990794,167.07086563110352,0.01430511474609375,0.07176399230957031,159.03902053833008,159.11078453063965,159.1649055480957,159.63315963745117
1759167713.2645948,1759167713.2687058,161.89908981323242,0.015497207641601562,0.07867813110351562,156.83460235595703,156.91328048706055,156.97050094604492,157.4690341949463
1759167713.4276345,1759167713.4320803,147.09877967834473,0.015735626220703125,0.07200241088867188,127.32195854187012,127.39396095275879,127.45547294616699,127.92086601257324
1759167713.5775902,1759167713.7229087,311.2003803253174,0.09489059448242188,0.06556510925292969,130.37443161010742,130.43999671936035,158.63800048828125,303.35450172424316
1759167713.8889403,1759167713.8963964,343.1558609008789,154.83689308166504,0.06532669067382812,170.8071231842041,170.87244987487793,325.8943557739258,327.9879093170166
1759167714.235822,1759167714.2454715,156.82268142700195,0.018358230590820312,0.08845329284667969,142.6384449005127,142.72689819335938,142.85659790039062,143.62120628356934
1759167714.3946028,1759167714.398138,185.46772003173828,0.016927719116210938,0.07748603820800781,175.00996589660645,175.08745193481445,175.14538764953613,175.69208145141602
1759167714.5802257,1759167714.5818076,181.05745315551758,0.0171661376953125,0.07700920104980469,151.3979434967041,151.4749526977539,151.52573585510254,152.06360816955566
1759167714.7614305,1759167714.766248,184.22579765319824,0.016450881958007812,0.080108642578125,166.30101203918457,166.3811206817627,166.43476486206055,166.9175624847412
1759167714.9495943,1759167714.959108,183.0441951751709,0.015020370483398438,0.07295608520507812,170.40324211120605,170.47619819641113,170.52340507507324,170.98093032836914
1759167715.1327925,1759167715.1380804,167.62137413024902,0.015497207641601562,0.07319450378417969,161.3907814025879,161.46397590637207,161.52095794677734,161.99159622192383
1759167715.301829,1759167715.3079944,155.81059455871582,0.016450881958007812,0.07009506225585938,144.9882984161377,145.05839347839355,145.10869979858398,145.5707550048828
1759167715.45779,1759167715.4710956,203.13692092895508,0.015020370483398438,0.07176399230957031,166.96977615356445,167.04154014587402,167.13261604309082,185.8539581298828
1759167715.6645968,1759167715.6660044,196.2273120880127,0.015735626220703125,0.06961822509765625,184.29970741271973,184.36932563781738,184.4189167022705,184.9071979522705
1759167715.8655906,1759167716.0352378,340.6658172607422,0.09822845458984375,0.06723403930664062,160.68148612976074,160.74872016906738,160.92848777770996,322.8592872619629
1759167716.2064102,1759167716.2110832,196.516752243042,0.0152587890625,0.07104873657226562,186.9049072265625,186.97595596313477,187.0255470275879,187.49380111694336
1759167716.4030988,1759167716.4082966,188.05170059204102,0.015497207641601562,0.07128715515136719,152.88305282592773,152.9543399810791,153.00583839416504,153.4566879272461
1759167716.5925987,1759167716.600993,187.0431900024414,0.015735626220703125,0.07033348083496094,160.68148612976074,160.7518196105957,160.79974174499512,161.26513481140137
1759167716.7797468,1759167716.9402492,317.49486923217773,0.09369850158691406,0.07224082946777344,133.5897445678711,133.66198539733887,133.8827610015869,140.12479782104492
1759167717.09964,1759167717.1040616,180.21416664123535,0.015497207641601562,0.06890296936035156,161.48114204406738,161.55004501342773,161.6067886352539,162.08744049072266
1759167717.2836406,1759167717.2850904,169.93045806884766,0.018358230590820312,0.07677078247070312,164.94417190551758,165.02094268798828,165.08102416992188,165.54021835327148
1759167717.4537213,1759167717.459078,179.8546314239502,0.015974044799804688,0.07128715515136719,171.80728912353516,171.87857627868652,171.93102836608887,172.3942756652832
1759167717.633734,1759167717.639565,174.90553855895996,0.015497207641601562,0.07033348083496094,150.30241012573242,150.37274360656738,150.42614936828613,150.91514587402344
1759167717.8087916,1759167717.810213,141.4496898651123,0.015497207641601562,0.07152557373046875,134.047269821167,134.11879539489746,134.17291641235352,139.68205451965332
1759167717.951634,1759167717.9551406,121.002197265625,0.01621246337890625,0.07128715515136719,115.68927764892578,115.76056480407715,115.81659317016602,116.27554893493652
1759167718.073597,1759167718.0800927,144.03629302978516,0.01621246337890625,0.07104873657226562,125.02241134643555,125.09346008300781,125.1523494720459,125.62727928161621
1759167718.217783,1759167718.2230961,143.2514190673828,0.015974044799804688,0.07462501525878906,133.73827934265137,133.81290435791016,133.87084007263184,134.3834400177002
1759167718.3611827,1759167718.3689935,188.51923942565918,0.014781951904296875,0.07224082946777344,173.28381538391113,173.3560562133789,173.40469360351562,173.88176918029785
1759167718.549886,1759167718.5537372,151.98135375976562,0.016450881958007812,0.06818771362304688,142.91000366210938,142.97819137573242,143.07117462158203,143.64051818847656
1759167718.7020166,1759167718.7052565,152.08959579467773,0.016450881958007812,0.07128715515136719,147.87912368774414,147.9504108428955,148.0083465576172,148.47970008850098
1759167718.8566356,1759167718.8610704,146.99959754943848,0.015735626220703125,0.07200241088867188,123.39496612548828,123.46696853637695,123.52252006530762,123.98409843444824
1759167719.0037987,1759167719.0090854,175.32968521118164,0.014543533325195312,0.07104873657226562,167.96875,168.03979873657227,168.0891513824463,168.55978965759277
1759167719.1792314,1759167719.1807868,202.4075984954834,0.01621246337890625,0.07033348083496094,198.24576377868652,198.31609725952148,198.3773708343506,198.9595890045166
1759167719.3817923,1759167719.3832898,191.4687156677246,0.014543533325195312,0.07128715515136719,185.00471115112305,185.0759983062744,185.13131141662598,185.654878616333
1759167719.5734088,1759167719.5748792,201.4901638031006,0.014543533325195312,0.07200241088867188,195.84941864013672,195.9214210510254,196.0148811340332,196.66814804077148
1759167719.7766378,1759167719.801146,210.005521774292,0.019788742065429688,0.07152557373046875,162.95838356018066,163.02990913391113,163.09762001037598,184.0953826904297
1759167719.9867966,1759167719.9920666,178.87520790100098,0.015020370483398438,0.072479248046875,164.69788551330566,164.77036476135254,164.8247241973877,165.28058052062988
1759167720.1658201,1759167720.1702826,168.07174682617188,0.014781951904296875,0.07200241088867188,147.27234840393066,147.34435081481934,147.39465713500977,147.8404998779297
1759167720.336636,1759167720.3419936,169.9376106262207,0.014781951904296875,0.06961822509765625,159.35897827148438,159.42859649658203,159.47723388671875,159.94977951049805
1759167720.5086346,1759167720.5235221,313.28463554382324,0.12731552124023438,0.07534027099609375,138.3514404296875,138.4267807006836,289.8540496826172,290.76528549194336
1759167720.8236368,1759167720.8390708,185.23693084716797,0.0152587890625,0.07009506225585938,165.72189331054688,165.79198837280273,165.8926010131836,166.3837432861328
1759167721.0125961,1759167721.014014,164.26587104797363,0.015497207641601562,0.07200241088867188,150.14958381652832,150.221586227417,150.27689933776855,150.73490142822266
1759167721.1770105,1759167721.1820838,179.88014221191406,0.014781951904296875,0.07009506225585938,173.4917163848877,173.56181144714355,173.66528511047363,174.32165145874023
1759167721.3586388,1759167721.3621426,168.00689697265625,0.01621246337890625,0.06985664367675781,155.68971633911133,155.7595729827881,155.81703186035156,156.38995170593262
1759167721.5267944,1759167721.676994,300.1723289489746,0.34689903259277344,0.07176399230957031,146.28314971923828,146.35491371154785,146.96764945983887,296.24056816101074
1759167721.8315952,1759167721.8361847,330.11341094970703,123.82054328918457,0.064849853515625,166.7466163635254,166.81146621704102,290.771484375,303.1940460205078
1759167722.1618633,1759167722.1673977,169.54874992370605,0.016689300537109375,0.07271766662597656,158.71524810791016,158.78796577453613,158.8437557220459,159.32416915893555
1759167722.331557,1759167722.3400989,147.31311798095703,0.015735626220703125,0.07152557373046875,126.46245956420898,126.53398513793945,126.58929824829102,127.07090377807617
1759167722.4790833,1759167722.4840786,156.90159797668457,0.015020370483398438,0.07271766662597656,133.00371170043945,133.07642936706543,133.1310272216797,133.59999656677246
1759167722.6398923,1759167722.6529784,191.328763961792,0.014781951904296875,0.0705718994140625,175.47035217285156,175.54092407226562,175.59051513671875,176.05257034301758
1759167722.831326,1759167722.832881,202.5434970855713,0.015020370483398438,0.06890296936035156,187.12306022644043,187.19196319580078,187.25180625915527,187.7768039703369
1759167723.0376382,1759167723.0423632,207.39483833312988,0.015020370483398438,0.07224082946777344,176.78594589233398,176.85818672180176,176.90706253051758,177.36387252807617
1759167723.245184,1759167723.2466445,198.18806648254395,0.015497207641601562,0.07414817810058594,173.92349243164062,173.9976406097412,174.05033111572266,174.52549934387207
1759167723.443535,1759167723.448105,161.50379180908203,0.015735626220703125,0.07414817810058594,152.67014503479004,152.74429321289062,152.79722213745117,153.28216552734375
1759167723.6066387,1759167723.6102006,143.9957618713379,0.0171661376953125,0.0705718994140625,133.99481773376465,134.0653896331787,134.12213325500488,134.68241691589355
1759167723.7507362,1759167723.7553182,150.84600448608398,0.015497207641601562,0.07557868957519531,119.22693252563477,119.30251121520996,119.36092376708984,119.83871459960938
1759167723.9017742,1759167723.910228,156.21542930603027,0.015020370483398438,0.06914138793945312,124.08208847045898,124.15122985839844,124.20129776000977,141.45731925964355
1759167724.0626714,1759167724.0711803,301.01537704467773,0.11205673217773438,0.07224082946777344,123.81482124328613,123.8870620727539,269.95396614074707,270.66493034362793
1759167724.3646493,1759167724.378026,181.09869956970215,0.016450881958007812,0.0743865966796875,160.60400009155273,160.67838668823242,160.7952117919922,161.50784492492676
1759167724.5459025,1759167724.5511053,180.45639991760254,0.015735626220703125,0.07271766662597656,174.29518699645996,174.36790466308594,174.42989349365234,174.9112606048584
1759167724.7265239,1759167724.7279963,201.97367668151855,0.015735626220703125,0.07128715515136719,199.56374168395996,199.63502883911133,199.68867301940918,200.1810073852539
1759167724.928663,1759167724.9301455,187.25347518920898,0.015735626220703125,0.07963180541992188,182.11627006530762,182.19590187072754,182.29150772094727,182.9531192779541
1759167725.11764,1759167725.1190603,192.3987865447998,0.014543533325195312,0.07009506225585938,180.59277534484863,180.6628704071045,180.71651458740234,181.1673641204834
1759167725.3116367,1759167725.3187706,205.9953212738037,0.016689300537109375,0.072479248046875,178.99131774902344,179.0637969970703,179.11434173583984,183.32743644714355
1759167725.5196376,1759167725.5231333,171.9372272491455,0.0152587890625,0.07271766662597656,144.00744438171387,144.08016204833984,144.1357135772705,144.5941925048828
1759167725.6965961,1759167725.6991239,170.98021507263184,0.015497207641601562,0.07557868957519531,161.2091064453125,161.2846851348877,161.33379936218262,161.79823875427246
1759167725.8688807,1759167725.8754718,337.76140213012695,164.00814056396484,0.07462501525878906,163.9876365661621,164.0622615814209,328.2139301300049,329.2691707611084
1759167726.2067502,1759167726.3830855,344.8965549468994,0.03457069396972656,0.0705718994140625,152.54878997802734,152.6193618774414,152.70566940307617,153.86319160461426
1759167726.5518064,1759167726.5579946,158.84852409362793,0.015497207641601562,0.07152557373046875,145.80273628234863,145.8742618560791,145.92814445495605,146.3925838470459
1759167726.710807,1759167726.71608,172.83368110656738,0.0152587890625,0.07319450378417969,161.29803657531738,161.37123107910156,161.43465042114258,161.90099716186523
1759167726.8837929,1759167726.8899977,175.82082748413086,0.01621246337890625,0.0705718994140625,168.6718463897705,168.74241828918457,168.79963874816895,169.27289962768555
1759167727.059759,1759167727.0660713,166.9595241546631,0.015020370483398438,0.06985664367675781,144.2878246307373,144.35768127441406,144.41490173339844,144.87504959106445
1759167727.2269893,1759167727.232074,168.36166381835938,0.015735626220703125,0.07414817810058594,142.9920196533203,143.0661678314209,143.12362670898438,143.5844898223877
1759167727.3955183,1759167727.402067,170.51291465759277,0.013828277587890625,0.0705718994140625,156.81695938110352,156.88753128051758,156.94022178649902,157.39202499389648
1759167727.5661793,1759167727.5712242,163.83981704711914,0.014781951904296875,0.07081031799316406,157.64355659484863,157.7143669128418,157.7625274658203,158.2331657409668
1759167727.7316375,1759167727.7360907,141.47639274597168,0.015020370483398438,0.07081031799316406,136.08646392822266,136.15727424621582,136.2142562866211,136.6896629333496
1759167727.87326,1759167727.881092,149.79791641235352,0.016450881958007812,0.07200241088867188,134.6111297607422,134.68313217163086,134.74321365356445,135.2241039276123
1759167728.025216,1759167728.0390296,132.6010227203369,0.01430511474609375,0.06937980651855469,105.9257984161377,105.99517822265625,106.0490608215332,106.50920867919922
1759167728.1579614,1759167728.163078,126.67298316955566,0.0152587890625,0.07081031799316406,106.43219947814941,106.50300979614258,106.55903816223145,107.02657699584961
1759167728.2847834,1759167728.2880998,125.46896934509277,0.017404556274414062,0.07104873657226562,110.77141761779785,110.84246635437012,110.89897155761719,111.44328117370605
1759167728.411634,1759167728.4163983,148.57959747314453,0.015735626220703125,0.07081031799316406,129.8048496246338,129.87565994262695,129.93288040161133,130.39374351501465
1759167728.5603561,1759167728.5650783,176.2828826904297,0.015020370483398438,0.06890296936035156,168.48039627075195,168.5492992401123,168.60580444335938,169.07954216003418
1759167728.7367935,1759167728.7511125,179.10170555114746,0.015020370483398438,0.072479248046875,160.34722328186035,160.41970252990723,160.46929359436035,160.93802452087402
1759167728.9160428,1759167728.9210782,154.1578769683838,0.015497207641601562,0.072479248046875,148.20337295532227,148.27585220336914,148.3304500579834,148.8027572631836
1759167729.0736358,1759167729.078063,176.9561767578125,0.0152587890625,0.07009506225585938,164.40987586975098,164.47997093200684,164.5514965057373,165.05026817321777
1759167729.2509093,1759167729.266471,308.00580978393555,145.57480812072754,0.07891654968261719,127.52652168273926,127.60543823242188,273.3347415924072,288.6984348297119
1759167729.564918,1759167729.572186,141.72077178955078,0.0171661376953125,0.07605552673339844,128.42082977294922,128.49688529968262,128.5545825958252,129.03857231140137
1759167729.7067902,1759167729.7127488,121.23250961303711,0.016450881958007812,0.07319450378417969,109.41600799560547,109.48920249938965,109.54546928405762,110.09907722473145
1759167729.828498,1759167729.8462791,92.1173095703125,0.016689300537109375,0.07367134094238281,59.06271934509277,59.136390686035156,73.2734203338623,73.96411895751953
1759167729.920758,1759167729.9290192,138.2584571838379,0.0152587890625,0.072479248046875,117.2175407409668,117.29001998901367,117.34604835510254,117.8281307220459
1759167730.05916,1759167730.0642407,134.0193748474121,0.015735626220703125,0.07152557373046875,122.85947799682617,122.93100357055664,122.97964096069336,123.47412109375
1759167730.194779,1759167730.2003815,252.0749568939209,111.52219772338867,0.08535385131835938,113.91925811767578,114.00461196899414,225.65841674804688,243.70598793029785
1759167730.450763,1759167730.4619977,314.97955322265625,151.15714073181152,0.06556510925292969,141.97325706481934,142.03882217407227,293.33043098449707,298.13146591186523
1759167730.7695959,1759167730.9047015,316.04528427124023,0.09202957153320312,0.06389617919921875,152.35424041748047,152.4181365966797,152.5862216949463,307.06048011779785
1759167731.085796,1759167731.091082,182.84249305725098,0.015974044799804688,0.07271766662597656,174.90434646606445,174.97706413269043,175.02689361572266,175.50206184387207
1759167731.268745,1759167731.2741082,178.28869819641113,0.015974044799804688,0.06961822509765625,168.40386390686035,168.473482131958,168.52784156799316,168.9901351928711
1759167731.447182,1759167731.4638255,186.39516830444336,0.015735626220703125,0.06985664367675781,164.83259201049805,164.9024486541748,164.95323181152344,165.42363166809082
1759167731.6337314,1759167731.6368985,169.173002243042,0.01621246337890625,0.07033348083496094,161.64922714233398,161.71956062316895,161.7758274078369,162.24193572998047
1759167731.8046374,1759167731.8090718,177.99735069274902,0.0152587890625,0.06890296936035156,169.46983337402344,169.5387363433838,169.5876121520996,170.07040977478027
1759167731.9827857,1759167731.9856496,174.1161346435547,0.015020370483398438,0.06985664367675781,158.2348346710205,158.30469131469727,158.35928916931152,158.81991386413574
1759167732.1570516,1759167732.1624937,170.58444023132324,0.030517578125,0.07796287536621094,156.5396785736084,156.6176414489746,156.68892860412598,157.1636199951172
1759167732.3277879,1759167732.3330855,172.75094985961914,0.014543533325195312,0.07104873657226562,162.59503364562988,162.66608238220215,162.71519660949707,163.1782054901123
1759167732.5007358,1759167732.506093,169.2953109741211,0.01430511474609375,0.06890296936035156,159.71899032592773,159.7878932952881,159.8358154296875,160.2914333343506
1759167732.6701791,1759167732.6740804,172.55711555480957,0.015497207641601562,0.07128715515136719,162.3830795288086,162.45436668395996,162.5072956085205,162.97030448913574
1759167732.842885,1759167732.8475847,162.3682975769043,0.0152587890625,0.07033348083496094,152.28557586669922,152.35590934753418,152.4038314819336,157.33647346496582
1759167733.0055306,1759167733.011079,212.37659454345703,0.015735626220703125,0.07343292236328125,173.89822006225586,173.97165298461914,174.0272045135498,174.4987964630127
1759167733.218008,1759167733.2263937,174.91769790649414,0.015020370483398438,0.07367134094238281,136.4603042602539,136.5339756011963,136.582612991333,137.05205917358398
1759167733.3930273,1759167733.3988352,109.29298400878906,0.01621246337890625,0.07152557373046875,102.54859924316406,102.62012481689453,102.68783569335938,103.17659378051758
1759167733.5024626,1759167733.5060997,139.70708847045898,0.01621246337890625,0.07343292236328125,134.65452194213867,134.72795486450195,134.78493690490723,135.2670192718506
1759167733.645638,1759167733.6500695,117.51604080200195,0.015020370483398438,0.07104873657226562,112.17713356018066,112.24818229675293,112.30254173278809,112.76388168334961
1759167733.7633007,1759167733.767822,148.44703674316406,0.015497207641601562,0.06914138793945312,128.91125679016113,128.9803981781006,129.03666496276855,129.52446937561035
1759167733.9118924,1759167733.9300532,165.01259803771973,0.0152587890625,0.07224082946777344,126.54900550842285,126.62124633789062,126.67632102966309,127.1519660949707
1759167734.0772028,1759167734.0922894,310.65940856933594,130.31435012817383,0.064849853515625,140.6393051147461,140.70415496826172,271.1508274078369,292.07777976989746
1759167734.3925962,1759167734.5409343,363.3251190185547,0.033855438232421875,0.072479248046875,176.42641067504883,176.4988899230957,208.59718322753906,210.39819717407227
1759167734.7560737,1759167734.7590725,177.83498764038086,0.015497207641601562,0.06961822509765625,171.26035690307617,171.32997512817383,171.44298553466797,172.0743179321289
1759167734.9340599,1759167734.9390986,181.81371688842773,0.01430511474609375,0.06842613220214844,174.2873191833496,174.35574531555176,174.41415786743164,174.86810684204102
1759167735.1189382,1759167735.1204333,175.5228042602539,0.01430511474609375,0.07867813110351562,173.0499267578125,173.12860488891602,173.18439483642578,173.69890213012695
1759167735.2946258,1759167735.2960715,172.01590538024902,0.015497207641601562,0.07128715515136719,152.50539779663086,152.57668495178223,152.63104438781738,153.10430526733398
1759167735.466793,1759167735.468185,142.78078079223633,0.0152587890625,0.07343292236328125,123.72279167175293,123.79622459411621,123.85201454162598,124.3124008178711
1759167735.6117125,1759167735.6154475,295.90654373168945,128.25274467468262,0.0667572021484375,157.7920913696289,157.85884857177734,286.26132011413574,287.0440483093262
1759167735.9077227,1759167736.0712316,358.687162399292,0.034809112548828125,0.07081031799316406,188.73953819274902,188.8103485107422,188.89188766479492,195.0209140777588
1759167736.2696443,1759167736.300806,222.0003604888916,0.019073486328125,0.07128715515136719,184.19790267944336,184.26918983459473,184.33189392089844,204.17308807373047
1759167736.494911,1759167736.5031965,172.20711708068848,0.015020370483398438,0.06961822509765625,155.1661491394043,155.23576736450195,155.35688400268555,156.01420402526855
1759167736.66727,1759167736.672078,173.54893684387207,0.0152587890625,0.06961822509765625,158.87451171875,158.94412994384766,158.99944305419922,159.46459770202637
1759167736.844594,1759167736.8471348,282.0925712585449,0.02574920654296875,0.07152557373046875,129.87327575683594,129.9448013305664,130.17797470092773,270.6453800201416
1759167737.1290596,1759167737.1439722,204.55527305603027,0.014543533325195312,0.06771087646484375,160.25972366333008,160.32743453979492,160.42351722717285,189.1031265258789
1759167737.3362331,1759167737.34021,163.63191604614258,0.014781951904296875,0.07224082946777344,155.3506851196289,155.42292594909668,155.52401542663574,156.15582466125488
1759167737.5075936,1759167737.8108962,473.4632968902588,0.0400543212890625,0.0705718994140625,147.38225936889648,147.45283126831055,147.57275581359863,149.09601211547852
1759167737.9836442,1759167737.9889753,148.00000190734863,0.0152587890625,0.06961822509765625,138.77248764038086,138.84210586547852,138.89122009277344,139.36877250671387
1759167738.1317997,1759167738.1351433,164.83569145202637,0.0152587890625,0.07653236389160156,159.1179370880127,159.1944694519043,159.2578887939453,159.73448753356934
1759167738.2985961,1759167738.3020852,162.02878952026367,0.014543533325195312,0.072479248046875,129.75454330444336,129.82702255249023,129.8811435699463,130.35035133361816
1759167738.466635,1759167738.468053,168.0009365081787,0.015735626220703125,0.07104873657226562,158.70022773742676,158.77127647399902,158.829927444458,159.30485725402832
1759167738.6347878,1759167738.6372437,193.11022758483887,0.014781951904296875,0.07033348083496094,186.8915557861328,186.96188926696777,187.06417083740234,187.76369094848633
1759167738.8306367,1759167739.0027714,342.68784523010254,0.0362396240234375,0.07176399230957031,138.40198516845703,138.4737491607666,138.55433464050293,154.97541427612305
1759167739.1756368,1759167739.3302214,335.00218391418457,0.10704994201660156,0.06985664367675781,168.10035705566406,168.17021369934082,168.39361190795898,322.02982902526855
1759167739.5108,1759167739.5212462,185.09936332702637,0.015020370483398438,0.07319450378417969,172.45888710021973,172.5320816040039,172.64723777770996,173.34628105163574
1759167739.6998038,1759167739.7130065,197.0803737640381,0.015497207641601562,0.07224082946777344,181.61678314208984,181.68902397155762,181.78510665893555,182.43956565856934
1759167739.900679,1759167739.9050868,190.23776054382324,0.0152587890625,0.07534027099609375,181.35929107666016,181.43463134765625,181.48350715637207,181.9751262664795
1759167740.0910177,1759167740.0928252,180.8934211730957,0.014781951904296875,0.07081031799316406,169.01206970214844,169.0828800201416,169.13986206054688,169.7535514831543
1759167740.2746375,1759167740.2830873,200.93846321105957,0.015974044799804688,0.07271766662597656,189.6834373474121,189.7561550140381,189.81218338012695,190.28186798095703
1759167740.4757314,1759167740.4810627,181.02788925170898,0.013828277587890625,0.06985664367675781,173.56634140014648,173.63619804382324,173.6898422241211,174.14116859436035
1759167740.6586368,1759167740.6630592,144.93846893310547,0.014066696166992188,0.06914138793945312,132.81559944152832,132.88474082946777,132.93170928955078,133.3773136138916
1759167740.80368,1759167740.8101351,138.46492767333984,0.015497207641601562,0.07200241088867188,120.90754508972168,120.97954750061035,121.02937698364258,121.50335311889648
1759167740.94364,1759167740.9480634,148.25034141540527,0.015497207641601562,0.07271766662597656,123.93879890441895,124.01151657104492,124.06468391418457,124.52220916748047
1759167741.0965943,1759167741.1011205,154.11758422851562,0.01621246337890625,0.07200241088867188,134.95349884033203,135.0255012512207,135.08272171020508,135.54883003234863
1759167741.2508597,1759167741.2550075,152.71377563476562,0.0152587890625,0.07390975952148438,125.14257431030273,125.21648406982422,125.27275085449219,125.75149536132812
1759167741.4037235,1759167741.4112492,255.85484504699707,117.7830696105957,0.0762939453125,120.48530578613281,120.56159973144531,238.48438262939453,241.05072021484375
1759167741.659731,1759167741.6651454,144.90318298339844,0.014781951904296875,0.06985664367675781,136.78383827209473,136.85369491577148,136.90423965454102,137.36724853515625
1759167741.8047376,1759167741.8108814,143.79215240478516,0.01430511474609375,0.06961822509765625,127.04348564147949,127.11310386657715,127.1660327911377,127.61688232421875
1759167741.948688,1759167741.9530737,150.17247200012207,0.015497207641601562,0.06961822509765625,143.08953285217285,143.1591510772705,143.21446418762207,143.70322227478027
1759167742.0990088,1759167742.1040723,153.5172462463379,0.014781951904296875,0.07033348083496094,147.53055572509766,147.60088920593262,147.65667915344238,148.1170654296875
1759167742.252672,1759167742.2560778,177.9026985168457,0.01621246337890625,0.07033348083496094,166.276216506958,166.34654998779297,166.40114784240723,166.89300537109375
1759167742.4307308,1759167742.4334872,152.90474891662598,0.022172927856445312,0.07152557373046875,143.16296577453613,143.2344913482666,143.2952880859375,143.8729763031006
1759167742.5837843,1759167742.5877328,159.24692153930664,0.014781951904296875,0.07176399230957031,150.9871482849121,151.05891227722168,151.11136436462402,151.5820026397705
1759167742.7445865,1759167742.748077,166.43595695495605,0.0152587890625,0.06961822509765625,161.3461971282959,161.41581535339355,161.4694595336914,161.93580627441406
1759167742.9111702,1759167742.9279861,175.85039138793945,0.014066696166992188,0.06961822509765625,154.34932708740234,154.4189453125,154.4661521911621,154.92844581604004
1759167743.0873134,1759167743.0933764,157.61971473693848,0.0152587890625,0.07009506225585938,150.6023406982422,150.67243576049805,150.7272720336914,151.20792388916016
1759167743.245076,1759167743.2490747,161.78083419799805,0.0152587890625,0.07152557373046875,153.69296073913574,153.7644863128662,153.81932258605957,154.28543090820312
1759167743.4070039,1759167743.412069,179.63242530822754,0.014066696166992188,0.07605552673339844,170.70746421813965,170.78351974487305,170.83477973937988,171.29158973693848
1759167743.5867887,1759167743.592079,172.05357551574707,0.015497207641601562,0.07081031799316406,165.83609580993652,165.9069061279297,165.96150398254395,166.42498970031738
1759167743.7616358,1759167743.765481,151.40724182128906,0.0152587890625,0.07772445678710938,139.5585536956787,139.63627815246582,139.68706130981445,140.14530181884766
1759167743.9145968,1759167743.9181833,182.04021453857422,0.015974044799804688,0.07081031799316406,156.94093704223633,157.0117473602295,157.0603847503662,157.53912925720215
1759167744.0967886,1759167744.1020725,195.80626487731934,0.015020370483398438,0.06961822509765625,180.3131103515625,180.38272857666016,180.45616149902344,180.95803260803223
1759167744.2927718,1759167744.3132052,204.87737655639648,0.016927719116210938,0.07867813110351562,174.55768585205078,174.6363639831543,174.69382286071777,175.22621154785156
1759167744.4978092,1759167744.5031462,176.3172149658203,0.01621246337890625,0.07605552673339844,160.3379249572754,160.4139804840088,160.47382354736328,160.9807014465332
1759167744.6742916,1759167744.6791751,158.5559844970703,0.016927719116210938,0.08058547973632812,152.693510055542,152.77409553527832,152.8317928314209,153.31411361694336
1759167744.8329988,1759167744.8381033,146.6355323791504,0.015974044799804688,0.0743865966796875,137.53867149353027,137.61305809020996,137.67004013061523,138.16094398498535
1759167744.979782,1759167744.983268,150.99740028381348,0.016450881958007812,0.07534027099609375,146.55613899230957,146.63147926330566,146.6832160949707,147.172212600708
1759167745.1313994,1759167745.1360774,163.6955738067627,0.015497207641601562,0.07128715515136719,142.99678802490234,143.0680751800537,143.12243461608887,143.58139038085938
1759167745.298592,1759167745.2999766,155.36212921142578,0.015735626220703125,0.072479248046875,150.11906623840332,150.1915454864502,150.24471282958984,150.7091522216797
1759167745.4540982,1759167745.4572363,160.79950332641602,0.0171661376953125,0.07295608520507812,137.97402381896973,138.0469799041748,138.10324668884277,138.65017890930176
1759167745.615115,1759167745.6200824,149.5983600616455,0.015497207641601562,0.07200241088867188,127.08210945129395,127.15411186218262,127.20942497253418,127.67791748046875
1759167745.7648602,1759167745.7663403,138.03410530090332,0.015497207641601562,0.07367134094238281,133.39614868164062,133.469820022583,133.51750373840332,134.01079177856445
1759167745.9095922,1759167745.9141445,179.29625511169434,0.015020370483398438,0.07295608520507812,140.1069164276123,140.17987251281738,140.23351669311523,161.8485450744629
1759167746.089106,1759167746.093396,153.52630615234375,0.015020370483398438,0.06914138793945312,139.52279090881348,139.59193229675293,139.64509963989258,140.13075828552246
1759167746.2427824,1759167746.2484207,306.78343772888184,133.59403610229492,0.06771087646484375,136.24024391174316,136.307954788208,270.035982131958,285.66718101501465
1759167746.5575948,1759167746.706085,303.1156063079834,0.09489059448242188,0.07295608520507812,138.71121406555176,138.78417015075684,138.95082473754883,289.6244525909424
1759167746.8650813,1759167746.8668864,174.9131679534912,0.015020370483398438,0.07033348083496094,142.3945426940918,142.46487617492676,142.52972602844238,172.12152481079102
1759167747.0426862,1759167747.0470724,188.9514923095703,0.014781951904296875,0.06961822509765625,146.70753479003906,146.77715301513672,146.82626724243164,147.31335639953613
1759167747.2396553,1759167747.2496653,447.98803329467773,127.47716903686523,0.06771087646484375,154.61134910583496,154.6790599822998,430.11975288391113,431.4258098602295
1759167747.696644,1759167747.711129,336.3475799560547,0.11682510375976562,0.07295608520507812,142.4887180328369,142.561674118042,300.94051361083984,301.6486167907715
1759167748.0396016,1759167748.1762989,308.41946601867676,0.03528594970703125,0.07081031799316406,169.27433013916016,169.34514045715332,169.4333553314209,171.7071533203125
1759167748.352646,1759167748.382786,208.24527740478516,0.015020370483398438,0.07224082946777344,158.39743614196777,158.46967697143555,158.5214138031006,158.99109840393066
1759167748.5646386,1759167748.574374,348.2363224029541,0.11324882507324219,0.07581710815429688,170.91631889343262,170.9921360015869,329.1487693786621,330.02495765686035
1759167748.9216015,1759167748.929171,182.4512481689453,0.015020370483398438,0.0705718994140625,155.45225143432617,155.52282333374023,155.5774211883545,156.03303909301758
1759167749.1056418,1759167749.111449,158.05482864379883,0.015735626220703125,0.07724761962890625,134.22226905822754,134.29951667785645,134.34815406799316,134.79924201965332
1759167749.2638454,1759167749.2683737,141.19458198547363,0.015497207641601562,0.06961822509765625,129.53495979309082,129.60457801818848,129.6525001525879,130.10072708129883
1759167749.4085143,1759167749.4183197,337.1291160583496,0.11110305786132812,0.09822845458984375,158.16211700439453,158.26034545898438,313.6413097381592,314.3420219421387
1759167749.745797,1759167749.759254,346.0886478424072,0.11134147644042969,0.07152557373046875,161.6384983062744,161.71002388000488,325.7625102996826,326.4451026916504
1759167750.096593,1759167750.101414,345.0446128845215,163.12265396118164,0.06461143493652344,154.86383438110352,154.92844581604004,318.19891929626465,336.6999626159668
1759167750.4417927,1759167750.451169,175.8742332458496,0.0152587890625,0.072479248046875,155.94482421875,156.01730346679688,156.06999397277832,156.54420852661133
1759167750.6178365,1759167750.6233852,179.4905662536621,0.015497207641601562,0.06985664367675781,158.64896774291992,158.71882438659668,158.77223014831543,159.2421531677246
1759167750.8000622,1759167750.8114595,342.93627738952637,153.55253219604492,0.06580352783203125,169.6617603302002,169.72756385803223,323.41837882995605,324.21255111694336
1759167751.1476014,1759167751.1490324,166.03374481201172,0.015020370483398438,0.07152557373046875,160.9344482421875,161.00597381591797,161.05937957763672,161.5135669708252
1759167751.3137407,1759167751.3192463,188.02666664123535,0.016450881958007812,0.0705718994140625,149.12176132202148,149.19233322143555,149.24144744873047,149.7213840484619
1759167751.5055964,1759167751.5070598,176.0416030883789,0.015497207641601562,0.0705718994140625,139.176607131958,139.24717903137207,139.2982006072998,139.74905014038086
1759167751.6817868,1759167751.687086,190.84811210632324,0.0152587890625,0.07224082946777344,181.78796768188477,181.86020851135254,181.90979957580566,182.38544464111328
1759167751.872738,1759167751.8781033,161.90195083618164,0.015735626220703125,0.07534027099609375,147.12953567504883,147.20487594604492,147.2625732421875,147.721529006958
1759167752.0347922,1759167752.0385175,179.78262901306152,0.015735626220703125,0.06866455078125,159.52610969543457,159.59477424621582,159.66415405273438,160.10594367980957
1759167752.2147276,1759167752.2191534,157.90653228759766,0.014066696166992188,0.07033348083496094,149.94454383850098,150.01487731933594,150.06685256958008,150.51674842834473
1759167752.3727863,1759167752.3780737,139.92905616760254,0.014781951904296875,0.07295608520507812,115.2644157409668,115.33737182617188,115.39149284362793,115.85426330566406
1759167752.512866,1759167752.515066,160.71629524230957,0.0152587890625,0.07081031799316406,157.54055976867676,157.61137008666992,157.66501426696777,158.1275463104248
1759167752.6737278,1759167752.6784086,156.9075584411621,0.015497207641601562,0.07009506225585938,148.2071876525879,148.27728271484375,148.33402633666992,148.79941940307617
1759167752.8307853,1759167752.8360758,153.50866317749023,0.015020370483398438,0.06961822509765625,147.29714393615723,147.36676216125488,147.4151611328125,147.8860378265381
1759167752.9844394,1759167752.9909887,178.59482765197754,0.015020370483398438,0.07081031799316406,171.10705375671387,171.17786407470703,171.2338924407959,171.69761657714844
1759167753.1631782,1759167753.16707,180.87387084960938,0.0152587890625,0.07414817810058594,153.62238883972168,153.69653701782227,153.7489891052246,154.22701835632324
1759167753.3442023,1759167753.3456616,195.4340934753418,0.015020370483398438,0.06961822509765625,176.26214027404785,176.3317584991455,176.37872695922852,176.85389518737793
1759167753.5397892,1759167753.5411935,194.84877586364746,0.014543533325195312,0.07176399230957031,189.4519329071045,189.52369689941406,189.5749568939209,190.02532958984375
1759167753.734787,1759167753.740127,178.114652633667,0.014781951904296875,0.07009506225585938,167.2055721282959,167.27566719055176,167.3290729522705,167.8030490875244
1759167753.9130495,1759167753.9361079,224.66516494750977,0.015020370483398438,0.07081031799316406,183.00247192382812,183.0732822418213,183.1226348876953,183.58898162841797
1759167754.1378658,1759167754.1393611,176.01895332336426,0.014543533325195312,0.07128715515136719,163.90109062194824,163.9723777770996,164.02339935302734,164.51787948608398
1759167754.314049,1759167754.3190732,157.58466720581055,0.015497207641601562,0.07081031799316406,129.72116470336914,129.7919750213623,129.84585762023926,130.30505180358887
1759167754.4717863,1759167754.477069,156.84914588928223,0.015020370483398438,0.07081031799316406,132.33113288879395,132.4019432067871,149.47032928466797,149.92880821228027
1759167754.6287875,1759167754.6340847,167.50669479370117,0.015974044799804688,0.07462501525878906,151.5970230102539,151.6716480255127,151.72696113586426,152.19616889953613
1759167754.7964547,1759167754.8021593,139.12272453308105,0.014781951904296875,0.07200241088867188,123.14558029174805,123.21758270263672,123.27337265014648,123.74997138977051
1759167754.9357333,1759167754.9410973,151.29852294921875,0.014066696166992188,0.07104873657226562,115.0350570678711,115.10610580444336,115.16070365905762,115.62657356262207
1759167755.087295,1759167755.092059,147.28116989135742,0.014781951904296875,0.06794929504394531,138.1521224975586,138.22007179260254,138.2753849029541,138.72790336608887
1759167755.234727,1759167755.239076,169.12579536437988,0.015020370483398438,0.07033348083496094,151.34549140930176,151.41582489013672,151.46422386169434,151.92556381225586
1759167755.403998,1759167755.5472977,326.05814933776855,0.0972747802734375,0.06556510925292969,161.64827346801758,161.7138385772705,161.8802547454834,323.6572742462158
1759167755.7376382,1759167755.7511992,158.9360237121582,0.0152587890625,0.07486343383789062,142.89450645446777,142.96936988830566,143.02396774291992,143.4786319732666
1759167755.9000585,1759167755.9030662,142.57049560546875,0.014781951904296875,0.07033348083496094,136.76762580871582,136.83795928955078,136.89136505126953,137.34722137451172
1759167756.0427783,1759167756.0480669,169.46816444396973,0.015020370483398438,0.07152557373046875,128.8759708404541,128.94749641418457,129.00137901306152,129.45055961608887
1759167756.2146318,1759167756.216026,164.47806358337402,0.014781951904296875,0.07009506225585938,155.4863452911377,155.55644035339355,155.6105613708496,156.07929229736328
1759167756.379297,1759167756.3840857,189.55492973327637,0.0152587890625,0.0705718994140625,168.0607795715332,168.13135147094727,168.18547248840332,168.64943504333496
1759167756.5699391,1759167756.5786755,163.96403312683105,0.014781951904296875,0.072479248046875,151.00955963134766,151.08203887939453,151.1821746826172,151.71384811401367
1759167756.7340505,1759167756.7391853,177.52432823181152,0.015974044799804688,0.07128715515136719,160.00890731811523,160.0801944732666,160.13669967651367,160.59327125549316
1759167756.911727,1759167756.94199,205.92212677001953,0.01811981201171875,0.8149147033691406,161.29374504089355,162.1086597442627,162.16516494750977,163.46144676208496
1759167757.1178112,1759167757.1194267,187.09707260131836,0.015735626220703125,0.08320808410644531,176.11408233642578,176.19729042053223,176.30267143249512,176.863431930542
1759167757.307881,1759167757.3094141,170.11618614196777,0.015020370483398438,2.2614002227783203,155.27105331420898,157.5324535369873,157.6526165008545,158.37407112121582
1759167757.479633,1759167757.497034,192.84963607788086,0.015497207641601562,0.07104873657226562,164.60442543029785,164.67547416687012,164.7334098815918,165.20047187805176
1759167757.6736612,1759167757.6810024,175.07696151733398,0.015974044799804688,0.07081031799316406,143.0196762084961,143.09048652648926,143.1436538696289,143.6166763305664
