Timestamp,ArrivalTime,TotalTime(ms),WaitTime(ms),DecodeTime(ms),InferTime(ms),ServerComputeTime(ms),TotalServer(ms),Total
1759168477.9629116,1759168478.2683222,407.5744152069092,0.3368854522705078,0.06890296936035156,22.977113723754883,23.046016693115234,24.003267288208008,124.16577339172363
1759168478.379621,1759168478.48011,168.72715950012207,1.0707378387451172,0.06556510925292969,19.743680953979492,19.809246063232422,22.6285457611084,111.22536659240723
1759168478.548518,1759168478.660861,162.41908073425293,0.3077983856201172,0.064849853515625,20.49422264099121,20.559072494506836,21.44932746887207,92.10634231567383
1759168478.7156045,1759168478.8181353,189.6662712097168,0.43463706970214844,0.06699562072753906,22.556781768798828,22.623777389526367,23.829221725463867,111.27328872680664
1759168478.905415,1759168478.995161,164.2293930053711,0.8645057678222656,0.06747245788574219,23.64349365234375,23.710966110229492,26.368379592895508,95.34049034118652
1759168479.0697987,1759168479.1784253,177.84619331359863,1.5506744384765625,0.06580352783203125,19.812822341918945,19.878625869750977,22.008895874023438,92.6215648651123
1759168479.2516825,1759168479.357953,176.95331573486328,0.38886070251464844,0.0667572021484375,21.023273468017578,21.090030670166016,22.523880004882812,90.49487113952637
1759168479.428785,1759168479.5363433,198.136568069458,0.6847381591796875,0.064849853515625,20.79916000366211,20.864009857177734,22.189617156982422,129.9293041229248
1759168479.627223,1759168479.7163272,177.67667770385742,0.32448768615722656,0.06413459777832031,19.559860229492188,19.623994827270508,20.528078079223633,108.4749698638916
1759168479.8135912,1759168479.9146607,189.0244483947754,0.8761882781982422,0.06461143493652344,19.609451293945312,19.674062728881836,21.335840225219727,129.5459270477295
1759168480.0056717,1759168480.0956223,161.96036338806152,0.9369850158691406,0.064849853515625,19.691944122314453,19.756793975830078,21.667003631591797,110.7015609741211
1759168480.1677787,1759168480.2747705,173.2466220855713,0.3261566162109375,0.06341934204101562,21.021127700805664,21.08454704284668,22.05944061279297,130.7966709136963
1759168480.3477829,1759168480.4316413,191.3442611694336,0.6458759307861328,0.06961822509765625,22.87745475769043,22.947072982788086,25.061607360839844,89.38145637512207
1759168480.5392697,1759168480.6087415,116.7604923248291,0.8034706115722656,0.06651878356933594,19.727706909179688,19.794225692749023,22.350788116455078,90.74282646179199
1759168480.6561756,1759168480.7868578,203.67717742919922,0.3638267517089844,0.06437301635742188,20.93052864074707,20.994901657104492,21.843433380126953,111.78755760192871
1759168480.8602777,1759168480.9675314,176.64837837219238,0.7560253143310547,0.0858306884765625,19.826173782348633,19.912004470825195,21.590709686279297,111.08183860778809
1759168481.040638,1759168481.146117,179.43406105041504,0.3085136413574219,0.06794929504394531,20.073413848876953,20.1413631439209,22.167444229125977,111.39225959777832
1759168481.2201674,1759168481.3463078,196.75111770629883,0.2665519714355469,0.06556510925292969,20.978212356567383,21.043777465820312,21.757841110229492,91.20035171508789
1759168481.4170585,1759168481.5199957,182.39092826843262,0.1499652862548828,0.06771087646484375,25.267839431762695,25.33555030822754,25.835037231445312,110.42118072509766
1759168481.6015906,1759168481.7452896,188.58671188354492,0.36525726318359375,0.06437301635742188,19.54793930053711,19.61231231689453,20.493745803833008,91.9351577758789
1759168481.7965927,1759168481.9234965,195.09029388427734,0.44345855712890625,0.06461143493652344,20.90930938720703,20.973920822143555,21.845579147338867,91.39490127563477
1759168481.9958735,1759168482.0979805,177.9630184173584,0.1583099365234375,0.06699562072753906,29.43730354309082,29.50429916381836,30.009746551513672,117.72704124450684
1759168482.1739368,1759168482.281018,179.7006130218506,1.6453266143798828,0.06556510925292969,20.16925811767578,20.23482322692871,23.48017692565918,129.68039512634277
1759168482.3538637,1759168482.4628918,178.76768112182617,0.5102157592773438,0.06866455078125,20.096302032470703,20.164966583251953,22.471904754638672,111.37247085571289
1759168482.5327759,1759168482.6425438,181.14805221557617,0.4153251647949219,0.06818771362304688,21.19731903076172,21.265506744384766,23.48470687866211,131.72316551208496
1759168482.7140667,1759168482.8246572,198.7898349761963,1.3306140899658203,0.06651878356933594,19.95086669921875,20.017385482788086,21.814584732055664,110.49485206604004
1759168482.923138,1759168483.0460525,187.61491775512695,0.31638145446777344,0.06389617919921875,19.5770263671875,19.64092254638672,20.557880401611328,110.71443557739258
1759168483.1170778,1759168483.2110245,232.86676406860352,0.23937225341796875,0.06866455078125,31.02731704711914,31.09598159790039,31.679868698120117,127.62331962585449
1759168483.3500428,1759168483.4194367,137.11214065551758,0.8358955383300781,0.06818771362304688,19.684314727783203,19.75250244140625,22.495031356811523,90.4841423034668
1759168483.4872997,1759168483.5976982,177.60014533996582,1.556396484375,0.06604194641113281,19.762039184570312,19.828081130981445,21.9113826751709,90.7599925994873
1759168483.6650453,1759168483.776251,178.37095260620117,1.5816688537597656,0.06628036499023438,19.764423370361328,19.830703735351562,21.99578285217285,91.67027473449707
1759168483.8435285,1759168483.9542608,159.41762924194336,1.4498233795166016,0.06628036499023438,19.701242446899414,19.76752281188965,21.790027618408203,112.09964752197266
1759168484.006593,1759168484.1116526,193.59564781188965,0.25010108947753906,0.06842613220214844,24.39713478088379,24.465560913085938,25.26402473449707,110.9776496887207
1759168484.2002864,1759168484.2895658,138.35382461547852,0.9191036224365234,0.06961822509765625,19.8061466217041,19.875764846801758,22.232532501220703,110.27264595031738
1759168484.3387845,1759168484.4677694,177.97136306762695,0.8649826049804688,0.06461143493652344,19.782066345214844,19.846677780151367,21.470308303833008,108.75320434570312
1759168484.5169003,1759168484.6479487,179.19301986694336,0.4878044128417969,0.07128715515136719,19.7908878326416,19.86217498779297,21.3010311126709,111.15694046020508
1759168484.696187,1759168484.8059134,182.87944793701172,0.5285739898681641,0.07534027099609375,19.716739654541016,19.79207992553711,21.361589431762695,110.11266708374023
1759168484.8792098,1759168484.9842682,191.62678718566895,0.6573200225830078,0.06556510925292969,19.649982452392578,19.715547561645508,21.94690704345703,109.79580879211426
1759168485.075635,1759168485.1616251,193.23468208312988,0.47588348388671875,0.07009506225585938,22.583961486816406,22.654056549072266,23.67544174194336,90.09218215942383
1759168485.2689664,1759168485.3396735,137.99667358398438,1.6465187072753906,0.07343292236328125,20.242691040039062,20.316123962402344,23.540735244750977,93.03474426269531
1759168485.4071088,1759168485.5167968,157.20105171203613,0.9732246398925781,0.06556510925292969,19.717693328857422,19.78325843811035,22.65167236328125,91.81737899780273
1759168485.5644526,1759168485.6959336,176.83815956115723,0.3311634063720703,0.06461143493652344,19.7293758392334,19.793987274169922,20.633220672607422,92.41104125976562
1759168485.7413864,1759168485.8495052,176.9876480102539,0.8294582366943359,0.06985664367675781,22.357940673828125,22.427797317504883,24.019479751586914,131.3788890838623
1759168485.9215922,1759168486.0273008,195.07098197937012,1.5587806701660156,0.06794929504394531,20.245790481567383,20.313739776611328,23.03338050842285,130.86819648742676
1759168486.1173162,1759168486.206929,177.3700714111328,0.7853507995605469,0.06723403930664062,20.26057243347168,20.32780647277832,22.699594497680664,112.92719841003418
1759168486.294831,1759168486.3851547,140.95211029052734,0.8063316345214844,0.064849853515625,21.6982364654541,21.763086318969727,24.919748306274414,93.92285346984863
1759168486.4359255,1759168486.5678341,177.23989486694336,0.3542900085449219,0.06389617919921875,19.572019577026367,19.635915756225586,20.447969436645508,92.43941307067871
1759168486.616057,1759168486.722137,194.37098503112793,0.24843215942382812,0.06842613220214844,24.67632293701172,24.744749069213867,26.434898376464844,111.20963096618652
1759168486.8106008,1759168486.89862,137.0840072631836,0.9198188781738281,0.064849853515625,19.713640213012695,19.77849006652832,21.67224884033203,109.54999923706055
1759168486.9496348,1759168487.0777638,197.0674991607666,0.49877166748046875,0.06318092346191406,21.024227142333984,21.0874080657959,22.39704132080078,111.1135482788086
1759168487.1468453,1759168487.2564485,178.59697341918945,1.850128173828125,0.06532669067382812,19.68526840209961,19.750595092773438,22.118568420410156,111.26041412353516
1759168487.3266718,1759168487.4359138,176.98359489440918,0.5495548248291016,0.07367134094238281,20.148754119873047,20.22242546081543,21.69203758239746,111.29212379455566
1759168487.5076349,1759168487.6157074,176.63335800170898,1.1627674102783203,0.08940696716308594,19.854068756103516,19.9434757232666,22.78304100036621,113.09146881103516
1759168487.684411,1759168487.794819,197.76535034179688,1.4879703521728516,0.06651878356933594,20.10512351989746,20.171642303466797,23.24390411376953,111.59706115722656
1759168487.8823187,1759168487.9711263,158.31661224365234,1.93023681640625,0.06723403930664062,19.81377601623535,19.881010055541992,23.354768753051758,111.65046691894531
1759168488.0446327,1759168488.1510408,173.56586456298828,0.4761219024658203,0.06937980651855469,21.053791046142578,21.123170852661133,22.185564041137695,91.58110618591309
1759168488.2182963,1759168488.3289585,181.5650463104248,0.5409717559814453,0.07224082946777344,20.740747451782227,20.81298828125,21.9881534576416,112.55025863647461
1759168488.4035945,1759168488.5078316,192.09671020507812,0.8666515350341797,0.06890296936035156,20.85256576538086,20.92146873474121,23.416519165039062,111.27877235412598
1759168488.5958357,1759168488.68537,157.11450576782227,0.568389892578125,0.06723403930664062,20.03312110900879,20.10035514831543,21.576881408691406,111.38749122619629
1759168488.756633,1759168488.8637383,174.76940155029297,0.888824462890625,0.06818771362304688,19.6688175201416,19.73700523376465,22.411346435546875,110.53657531738281
1759168488.9315572,1759168489.0418139,178.85279655456543,1.569509506225586,0.06604194641113281,19.806861877441406,19.87290382385254,22.074460983276367,110.25547981262207
1759168489.1136324,1759168489.220976,178.26509475708008,0.3936290740966797,0.06818771362304688,21.23260498046875,21.300792694091797,22.710561752319336,112.71142959594727
1759168489.2920444,1759168489.3995452,177.87480354309082,0.4444122314453125,0.07033348083496094,21.82292938232422,21.89326286315918,23.047208786010742,131.87074661254883
1759168489.473609,1759168489.578867,193.06254386901855,0.4630088806152344,0.06842613220214844,21.725177764892578,21.793603897094727,22.994279861450195,112.93148994445801
1759168489.6668165,1759168489.7553337,177.14333534240723,0.568389892578125,0.06747245788574219,21.11673355102539,21.184206008911133,23.27728271484375,112.51711845397949
1759168489.8447528,1759168489.9334564,157.45210647583008,0.6771087646484375,0.06842613220214844,21.210432052612305,21.278858184814453,23.79131317138672,111.71841621398926
1759168490.0023491,1759168490.1119616,178.34901809692383,1.5926361083984375,0.06556510925292969,20.060300827026367,20.125865936279297,23.367643356323242,111.4194393157959
1759168490.1807966,1759168490.2916923,180.01103401184082,0.3743171691894531,0.06389617919921875,21.008014678955078,21.071910858154297,21.932601928710938,112.61987686157227
1759168490.364963,1759168490.4703693,173.94590377807617,0.4341602325439453,0.06842613220214844,21.38376235961914,21.45218849182129,22.702932357788086,111.44065856933594
1759168490.5428782,1759168490.647143,193.0990219116211,0.5655288696289062,0.06699562072753906,22.754430770874023,22.821426391601562,24.884462356567383,130.91349601745605
1759168490.7360764,1759168490.8237066,137.5594139099121,0.8668899536132812,0.06413459777832031,19.70529556274414,19.76943016052246,22.30215072631836,108.88361930847168
1759168490.8737833,1759168491.0033147,183.38513374328613,0.4925727844238281,0.06413459777832031,19.800424575805664,19.864559173583984,21.370649337768555,108.31117630004883
1759168491.0625937,1759168491.1825686,174.25107955932617,0.5102157592773438,0.06437301635742188,19.662857055664062,19.727230072021484,21.24810218811035,108.74176025390625
1759168491.2372158,1759168491.3616202,215.49510955810547,0.4184246063232422,0.06341934204101562,21.06332778930664,21.126747131347656,22.13454246520996,110.15629768371582
1759168491.4575922,1759168491.5627267,193.16506385803223,0.8614063262939453,0.06532669067382812,19.799470901489258,19.864797592163086,21.354198455810547,130.54227828979492
1759168491.6509032,1759168491.741017,161.7298126220703,0.9250640869140625,0.06413459777832031,19.75250244140625,19.81663703918457,22.310972213745117,109.99417304992676
1759168491.8127794,1759168491.9194145,173.61068725585938,1.5625953674316406,0.06556510925292969,19.754648208618164,19.820213317871094,22.057771682739258,109.96246337890625
1759168491.9896352,1759168492.0988276,175.6749153137207,0.45228004455566406,0.06413459777832031,19.764184951782227,19.828319549560547,20.932435989379883,90.10553359985352
1759168492.1654522,1759168492.2766843,181.49232864379883,0.3466606140136719,0.06389617919921875,19.73128318786621,19.79517936706543,20.72429656982422,110.55350303649902
1759168492.3515906,1759168492.4553704,191.26105308532715,1.3363361358642578,0.0667572021484375,19.800186157226562,19.866943359375,21.63529396057129,109.54451560974121
1759168492.555589,1759168492.6765246,188.3220672607422,0.3261566162109375,0.06413459777832031,19.698143005371094,19.762277603149414,20.68042755126953,109.6181869506836
1759168492.7528784,1759168492.855424,171.0503101348877,0.4990100860595703,0.06556510925292969,19.884824752807617,19.950389862060547,21.28911018371582,110.27693748474121
1759168492.9240708,1759168493.0334373,195.17898559570312,0.6842613220214844,0.06866455078125,19.701480865478516,19.770145416259766,22.178173065185547,111.2065315246582
1759168493.119395,1759168493.2088952,177.3855686187744,0.26917457580566406,0.06747245788574219,22.55082130432129,22.61829376220703,24.337053298950195,112.47611045837402
1759168493.296927,1759168493.384828,136.69753074645996,0.91552734375,0.06532669067382812,19.72222328186035,19.78754997253418,22.640705108642578,109.65943336486816
1759168493.4337666,1759168493.5637367,177.14357376098633,0.48089027404785156,0.06437301635742188,19.77252960205078,19.836902618408203,21.32868766784668,108.93869400024414
1759168493.6155493,1759168493.7000275,170.40133476257324,0.8296966552734375,0.06961822509765625,20.89667320251465,20.966291427612305,22.603750228881836,89.43009376525879
1759168493.7896376,1759168493.8771439,174.71861839294434,0.7653236389160156,0.06842613220214844,22.475242614746094,22.543668746948242,24.850130081176758,92.15497970581055
1759168493.9645138,1759168494.0536916,136.43908500671387,0.5297660827636719,0.06628036499023438,20.246505737304688,20.312786102294922,22.54629135131836,90.86394309997559
1759168494.1036367,1759168494.2339168,179.5051097869873,0.3509521484375,0.064849853515625,19.719600677490234,19.78445053100586,20.60699462890625,93.12176704406738
1759168494.287548,1759168494.4135559,190.9964084625244,1.3456344604492188,0.0667572021484375,19.829511642456055,19.896268844604492,21.680831909179688,91.1719799041748
1759168494.4875925,1759168494.5930657,190.45138359069824,0.21529197692871094,0.06413459777832031,19.66118812561035,19.725322723388672,20.373106002807617,89.56742286682129
1759168494.689595,1759168494.7916827,187.8678798675537,1.3654232025146484,0.06556510925292969,19.80137825012207,19.866943359375,21.646976470947266,109.34019088745117
1759168494.8894637,1759168495.0131235,196.98262214660645,0.3108978271484375,0.07367134094238281,19.567012786865234,19.640684127807617,20.55191993713379,111.16504669189453
1759168495.090589,1759168495.2132547,189.33701515197754,0.32448768615722656,0.06437301635742188,19.675016403198242,19.739389419555664,20.698070526123047,109.69710350036621
1759168495.2800207,1759168495.3697376,176.17559432983398,0.38433074951171875,0.06937980651855469,21.40069007873535,21.470069885253906,22.930383682250977,90.16132354736328
1759168495.4563396,1759168495.5476174,177.77752876281738,0.4162788391113281,0.06961822509765625,20.19953727722168,20.269155502319336,21.519899368286133,112.67590522766113
1759168495.6349394,1759168495.7248836,179.69465255737305,0.43654441833496094,0.06842613220214844,21.495580673217773,21.564006805419922,23.82659912109375,111.24157905578613
1759168495.8147366,1759168495.9029946,175.9653091430664,0.4181861877441406,0.06747245788574219,21.715641021728516,21.783113479614258,22.953033447265625,111.44089698791504
1759168495.9908478,1759168496.0811465,159.8210334777832,0.904083251953125,0.064849853515625,19.896268844604492,19.961118698120117,22.517919540405273,111.77730560302734
1759168496.1508176,1759168496.2608185,177.29592323303223,1.4591217041015625,0.06651878356933594,20.215272903442383,20.28179168701172,23.16141128540039,111.9081974029541
1759168496.3282132,1759168496.4376707,178.18284034729004,1.5952587127685547,0.06604194641113281,20.264387130737305,20.330429077148438,23.76866340637207,130.17535209655762
1759168496.506554,1759168496.6179254,180.2968978881836,0.36525726318359375,0.06604194641113281,21.11029624938965,21.17633819580078,22.2015380859375,110.65459251403809
1759168496.695591,1759168496.8186886,190.76156616210938,0.8406639099121094,0.064849853515625,19.840240478515625,19.90509033203125,22.672414779663086,110.11385917663574
1759168496.8864515,1759168496.9998288,199.85389709472656,0.46324729919433594,0.06580352783203125,19.75846290588379,19.82426643371582,20.89095115661621,111.47308349609375
1759168497.0864518,1759168497.1787958,161.22794151306152,0.5528926849365234,0.06437301635742188,19.823312759399414,19.887685775756836,21.330833435058594,110.00370979309082
1759168497.2515912,1759168497.3575995,174.26276206970215,0.4839897155761719,0.06461143493652344,19.750595092773438,19.81520652770996,21.18372917175293,110.43548583984375
1759168497.4295912,1759168497.5353296,173.43688011169434,0.35762786865234375,0.06890296936035156,21.403789520263672,21.472692489624023,22.597074508666992,111.63210868835449
1759168497.6046748,1759168497.7137156,197.95560836791992,0.46563148498535156,0.06747245788574219,21.728992462158203,21.796464920043945,23.81730079650879,111.79161071777344
1759168497.806634,1759168497.893372,173.97642135620117,0.4124641418457031,0.06890296936035156,21.2860107421875,21.35491371154785,22.521018981933594,112.8385066986084
1759168497.980755,1759168498.0711126,158.14447402954102,0.9789466857910156,0.064849853515625,19.849777221679688,19.914627075195312,22.67003059387207,111.95659637451172
1759168498.1426353,1759168498.2501028,174.6985912322998,1.6531944274902344,0.06937980651855469,19.93274688720703,20.002126693725586,22.53866195678711,111.38391494750977
1759168498.3186333,1759168498.4296882,181.4401149749756,0.6999969482421875,0.06866455078125,19.761323928833008,19.829988479614258,22.402524948120117,111.72604560852051
1759168498.5002174,1759168498.6090786,172.44815826416016,0.19669532775878906,0.06413459777832031,19.62876319885254,19.69289779663086,20.30801773071289,89.27440643310547
1759168498.6826382,1759168498.8271484,191.666841506958,0.5271434783935547,0.06508827209472656,19.78898048400879,19.854068756103516,21.378755569458008,109.17258262634277
1759168498.8825903,1759168498.9853013,193.08042526245117,1.3759136199951172,0.06580352783203125,19.755840301513672,19.821643829345703,21.608829498291016,109.52425003051758
1759168499.0764198,1759168499.1619163,193.34936141967773,0.6511211395263672,0.06985664367675781,22.91107177734375,22.980928421020508,25.038480758666992,89.86806869506836
1759168499.2698708,1759168499.3395164,156.41522407531738,0.29587745666503906,0.06818771362304688,22.747278213500977,22.815465927124023,23.60844612121582,88.8509750366211
1759168499.4286382,1759168499.5174165,177.01220512390137,1.0480880737304688,0.07462501525878906,21.415233612060547,21.489858627319336,24.100542068481445,113.22426795959473
1759168499.6096327,1759168499.6959255,177.00648307800293,0.4191398620605469,0.06723403930664062,21.58975601196289,21.65699005126953,22.849082946777344,111.44208908081055
1759168499.7867868,1759168499.8742087,175.22931098937988,0.5829334259033203,0.06794929504394531,21.411895751953125,21.47984504699707,23.737430572509766,113.31796646118164
1759168499.9621606,1759168500.0522501,158.00833702087402,0.5552768707275391,0.0667572021484375,20.637989044189453,20.70474624633789,22.063016891479492,113.6312484741211
1759168500.1203146,1759168500.2302358,161.56601905822754,0.5865097045898438,0.06628036499023438,19.74654197692871,19.812822341918945,21.43406867980957,109.43484306335449
1759168500.28659,1759168500.3887086,189.13507461547852,0.6396770477294922,0.06604194641113281,20.01500129699707,20.081043243408203,21.361589431762695,110.31317710876465
1759168500.4792519,1759168500.5681136,195.7535743713379,1.5864372253417969,0.06890296936035156,21.62790298461914,21.696805953979492,24.829387664794922,89.98322486877441
1759168500.6755922,1759168500.745597,157.487154006958,0.2894401550292969,0.06818771362304688,23.328065872192383,23.39625358581543,25.104522705078125,90.79432487487793
1759168500.833225,1759168500.9230533,137.26425170898438,0.5519390106201172,0.06628036499023438,20.267009735107422,20.333290100097656,22.639751434326172,91.16530418395996
1759168500.9706402,1759168501.1023557,180.4347038269043,0.34928321838378906,0.06413459777832031,19.76609230041504,19.83022689819336,20.678997039794922,92.62323379516602
1759168501.1556032,1759168501.2810519,194.07892227172852,1.3365745544433594,0.06604194641113281,19.794940948486328,19.86098289489746,21.641254425048828,91.04251861572266
1759168501.353864,1759168501.456702,173.28453063964844,0.3082752227783203,0.06747245788574219,23.87237548828125,23.939847946166992,24.982213973999023,111.0987663269043
1759168501.5306358,1759168501.6342802,172.0724105834961,1.577138900756836,0.06818771362304688,20.15972137451172,20.227909088134766,23.720741271972656,111.13452911376953
1759168501.7028527,1759168501.8133197,182.00254440307617,0.34499168395996094,0.06437301635742188,21.175622940063477,21.2399959564209,22.140026092529297,112.49637603759766
1759168501.8852842,1759168501.9918342,195.84202766418457,0.4010200500488281,0.06914138793945312,21.745681762695312,21.814823150634766,22.9489803314209,112.40553855895996
1759168502.0866342,1759168502.1710186,172.0569133758545,0.110626220703125,0.06747245788574219,25.235652923583984,25.303125381469727,25.710105895996094,89.141845703125
1759168502.2587903,1759168502.3466733,137.84265518188477,0.8914470672607422,0.06461143493652344,19.718408584594727,19.78302001953125,22.306203842163086,109.03453826904297
1759168502.4006307,1759168502.5261784,154.64425086975098,0.5178451538085938,0.06341934204101562,19.66094970703125,19.724369049072266,21.09670639038086,89.09249305725098
1759168502.5596144,1759168502.6839156,192.23642349243164,0.3349781036376953,0.06437301635742188,19.79660987854004,19.86098289489746,20.75934410095215,89.90478515625
1759168502.7606313,1759168502.8827183,189.9394989013672,0.9186267852783203,0.064849853515625,19.83785629272461,19.902706146240234,22.454261779785156,111.3426685333252
1759168502.950716,1759168503.0614824,198.3795166015625,1.5037059783935547,0.06580352783203125,20.181655883789062,20.247459411621094,23.26345443725586,111.61422729492188
1759168503.1492555,1759168503.237925,156.68225288391113,1.9474029541015625,0.06580352783203125,19.85311508178711,19.91891860961914,23.651599884033203,111.40823364257812
1759168503.308635,1759168503.4168823,179.22353744506836,0.3464221954345703,0.06461143493652344,21.04926109313965,21.113872528076172,21.9876766204834,112.78271675109863
1759168503.4882839,1759168503.5967607,179.39019203186035,0.8180141448974609,0.06866455078125,21.36826515197754,21.43692970275879,23.003816604614258,113.42430114746094
1759168503.6678224,1759168503.775176,195.03521919250488,0.4470348358154297,0.06842613220214844,21.753311157226562,21.82173728942871,24.0936279296875,130.93137741088867
1759168503.8629987,1759168503.9527237,159.67130661010742,0.49948692321777344,0.06985664367675781,20.160913467407227,20.230770111083984,22.48835563659668,111.73486709594727
1759168504.0228188,1759168504.1314392,159.06715393066406,1.6491413116455078,0.06461143493652344,19.74344253540039,19.808053970336914,22.344350814819336,111.10639572143555
1759168504.1822612,1759168504.2857306,191.78247451782227,0.4725456237792969,0.06818771362304688,24.36065673828125,24.428844451904297,26.34286880493164,110.53323745727539
1759168504.374832,1759168504.462694,156.3718318939209,1.8281936645507812,0.06914138793945312,19.873380661010742,19.942522048950195,23.476123809814453,110.50987243652344
1759168504.5346344,1759168504.6427934,178.0376434326172,1.4641284942626953,0.06556510925292969,19.683361053466797,19.748926162719727,21.721839904785156,112.77508735656738
1759168504.7169254,1759168504.8228006,172.99151420593262,0.39196014404296875,0.06890296936035156,20.188093185424805,20.256996154785156,22.4609375,111.68909072875977
1759168504.8936343,1759168504.9997048,193.0687427520752,0.4055500030517578,0.06771087646484375,22.739171981811523,22.806882858276367,23.955345153808594,111.2372875213623
1759168505.0906355,1759168505.179852,156.5868854522705,1.5985965728759766,0.07367134094238281,20.215272903442383,20.288944244384766,24.091005325317383,93.05429458618164
1759168505.2495944,1759168505.3592343,155.89332580566406,0.27751922607421875,0.06747245788574219,21.254777908325195,21.322250366210938,22.035598754882812,93.64604949951172
1759168505.4089093,1759168505.5348084,194.74363327026367,0.4208087921142578,0.0667572021484375,22.90487289428711,22.971630096435547,24.042606353759766,113.17706108093262
1759168505.603798,1759168505.712183,161.8349552154541,0.9486675262451172,0.06651878356933594,19.75393295288086,19.820451736450195,21.549701690673828,108.50858688354492
1759168505.7657788,1759168505.8899293,173.29025268554688,0.8981227874755859,0.06508827209472656,19.709110260009766,19.774198532104492,22.592782974243164,108.46447944641113
1759168505.939211,1759168506.0692222,179.0752410888672,0.48613548278808594,0.06365776062011719,19.83165740966797,19.895315170288086,21.25406265258789,110.80574989318848
1759168506.1216297,1759168506.2274907,174.49688911437988,0.4591941833496094,0.06771087646484375,19.805908203125,19.873619079589844,21.289348602294922,111.45877838134766
1759168506.2962701,1759168506.4040723,177.36244201660156,0.41866302490234375,0.07319450378417969,21.88396453857422,21.9571590423584,22.907733917236328,112.0152473449707
1759168506.4738138,1759168506.5812542,176.5897274017334,0.34999847412109375,0.06723403930664062,23.08034896850586,23.1475830078125,24.887800216674805,113.05069923400879
1759168506.6516485,1759168506.75997,176.94950103759766,1.6984939575195312,0.06628036499023438,19.85025405883789,19.916534423828125,23.662090301513672,131.46615028381348
1759168506.8287418,1759168506.9372404,181.168794631958,0.7424354553222656,0.06365776062011719,21.068096160888672,21.13175392150879,22.581100463867188,131.19983673095703
1759168507.010057,1759168507.1152558,194.11993026733398,1.5158653259277344,0.06842613220214844,20.186901092529297,20.255327224731445,23.757219314575195,131.3314437866211
1759168507.2042773,1759168507.292938,157.1485996246338,1.115560531616211,0.06461143493652344,21.09551429748535,21.160125732421875,23.699522018432617,111.38582229614258
1759168507.3636353,1759168507.4708924,177.99806594848633,1.779317855834961,0.06508827209472656,19.7904109954834,19.855499267578125,22.15123176574707,109.88068580627441
1759168507.5417812,1759168507.6495185,158.53428840637207,0.4680156707763672,0.06508827209472656,19.76633071899414,19.831418991088867,21.296977996826172,109.01165008544922
1759168507.7004118,1759168507.7858806,173.26712608337402,1.3041496276855469,0.0705718994140625,19.935131072998047,20.00570297241211,22.101640701293945,89.86020088195801
1759168507.8738256,1759168507.9623675,195.36066055297852,0.25010108947753906,0.07271766662597656,22.908687591552734,22.98140525817871,24.615049362182617,111.27448081970215
1759168508.0693295,1759168508.1385999,117.69676208496094,0.7724761962890625,0.06794929504394531,20.518779754638672,20.586729049682617,23.259878158569336,91.53580665588379
1759168508.1871245,1759168508.3190384,177.22153663635254,0.3311634063720703,0.06413459777832031,19.673585891723633,19.737720489501953,20.557641983032227,92.10348129272461
1759168508.3697855,1759168508.4731817,191.28727912902832,0.7219314575195312,0.06937980651855469,23.718833923339844,23.7882137298584,24.86586570739746,110.88180541992188
1759168508.5614917,1759168508.6501036,156.71849250793457,0.7123947143554688,0.06747245788574219,21.01588249206543,21.083354949951172,22.557973861694336,110.02945899963379
1759168508.718354,1759168508.8292232,178.18164825439453,0.5564689636230469,0.06437301635742188,19.700050354003906,19.764423370361328,21.14582061767578,110.26668548583984
1759168508.8969584,1759168509.0069418,166.89395904541016,0.4711151123046875,0.06389617919921875,19.9432373046875,20.00713348388672,21.465063095092773,108.60013961791992
1759168509.0685916,1759168509.1850443,167.59443283081055,0.5168914794921875,0.064849853515625,19.705533981323242,19.770383834838867,21.32582664489746,108.38794708251953
1759168509.2446392,1759168509.3440897,170.13216018676758,0.560760498046875,0.06508827209472656,19.716978073120117,19.782066345214844,21.22330665588379,110.43357849121094
1759168509.4177356,1759168509.523373,191.82348251342773,0.6403923034667969,0.06556510925292969,19.739866256713867,19.805431365966797,21.979093551635742,110.16845703125
1759168509.609726,1759168509.6986516,157.8056812286377,1.6798973083496094,0.06604194641113281,20.403623580932617,20.46966552734375,23.962736129760742,112.98227310180664
1759168509.7686346,1759168509.8775103,162.26935386657715,1.402139663696289,0.06890296936035156,21.369457244873047,21.4383602142334,23.633956909179688,113.31725120544434
1759168509.931048,1759168510.055868,194.05627250671387,0.8115768432617188,0.06842613220214844,21.09217643737793,21.160602569580078,22.723913192749023,131.29901885986328
1759168510.1265914,1759168510.2375567,198.27961921691895,1.5544891357421875,0.064849853515625,19.721031188964844,19.78588104248047,21.996021270751953,131.13117218017578
1759168510.3250117,1759168510.4170353,180.83858489990234,0.47016143798828125,0.06461143493652344,19.893646240234375,19.9582576751709,21.160125732421875,110.39447784423828
1759168510.5173588,1759168510.6380596,214.30468559265137,1.4827251434326172,0.06604194641113281,19.765853881835938,19.83189582824707,21.90685272216797,130.83434104919434
1759168510.7317634,1759168510.8165736,172.26696014404297,0.41484832763671875,0.06556510925292969,21.56352996826172,21.62909507751465,22.978544235229492,110.70370674133301
1759168510.9041743,1759168510.9938157,157.67407417297363,0.5080699920654297,0.0667572021484375,20.221710205078125,20.288467407226562,22.5369930267334,111.30332946777344
1759168511.0635917,1759168511.1729465,196.6571807861328,0.659942626953125,0.06437301635742188,21.16990089416504,21.23427391052246,23.355960845947266,112.12301254272461
1759168511.2609837,1759168511.3517535,177.46567726135254,0.32901763916015625,0.06771087646484375,22.582292556762695,22.65000343322754,23.714303970336914,110.67676544189453
1759168511.441638,1759168511.5289092,174.93319511413574,0.41484832763671875,0.0667572021484375,21.923542022705078,21.990299224853516,23.954153060913086,111.22989654541016
1759168511.6167133,1759168511.7060504,136.7037296295166,0.8945465087890625,0.06604194641113281,19.895553588867188,19.96159553527832,22.683143615722656,91.28260612487793
1759168511.753575,1759168511.8855484,179.35562133789062,0.3421306610107422,0.06365776062011719,19.69003677368164,19.753694534301758,20.537137985229492,91.98904037475586
1759168511.9365923,1759168512.0390787,172.24812507629395,0.2181529998779297,0.06747245788574219,24.441957473754883,24.509429931640625,26.224136352539062,110.97240447998047
1759168512.122616,1759168512.225413,192.74234771728516,1.4638900756835938,0.06794929504394531,20.68305015563965,20.750999450683594,23.9105224609375,131.33764266967773
1759168512.3190734,1759168512.406842,194.66710090637207,0.42319297790527344,0.07224082946777344,21.374940872192383,21.447181701660156,23.56243133544922,110.10956764221191
1759168512.5144255,1759168512.584359,137.2072696685791,0.4875659942626953,0.06771087646484375,21.30889892578125,21.376609802246094,22.440195083618164,91.3839340209961
1759168512.6556318,1759168512.7623236,154.0682315826416,1.430511474609375,0.06508827209472656,19.806623458862305,19.87171173095703,21.778106689453125,90.73090553283691
1759168512.81063,1759168512.9409246,198.29583168029785,0.5311965942382812,0.07605552673339844,21.41880989074707,21.49486541748047,22.965192794799805,112.53142356872559
1759168513.0090702,1759168513.1200216,186.56659126281738,1.522064208984375,0.06556510925292969,20.227909088134766,20.293474197387695,23.423433303833008,111.43183708190918
1759168513.1957371,1759168513.3380866,209.31744575500488,0.6084442138671875,0.06461143493652344,21.17133140563965,21.235942840576172,22.44853973388672,128.2975673675537
1759168513.4052005,1759168513.5150084,178.2858371734619,0.4401206970214844,0.072479248046875,21.305084228515625,21.3775634765625,22.238731384277344,111.53149604797363
1759168513.5836427,1759168513.6928494,177.69789695739746,0.5071163177490234,0.0629425048828125,21.024465560913086,21.0874080657959,22.32813835144043,109.5731258392334
1759168513.7614846,1759168513.871753,180.15003204345703,0.48732757568359375,0.06270408630371094,19.821882247924805,19.884586334228516,21.211624145507812,110.99576950073242
1759168513.941817,1759168514.0498557,157.57179260253906,0.4680156707763672,0.06389617919921875,19.86861228942871,19.93250846862793,21.458864212036133,109.83729362487793
1759168514.104595,1759168514.2088778,190.38939476013184,0.6999969482421875,0.06580352783203125,19.82879638671875,19.89459991455078,21.27361297607422,110.09526252746582
1759168514.2951255,1759168514.3871114,197.77870178222656,0.6480216979980469,0.064849853515625,19.696474075317383,19.761323928833008,21.021604537963867,110.13412475585938
1759168514.4930475,1759168514.5647805,157.5944423675537,0.6959438323974609,0.07128715515136719,19.75870132446289,19.829988479614258,20.92766761779785,89.56575393676758
1759168514.6507864,1759168514.7412162,157.94754028320312,0.5421638488769531,0.06461143493652344,20.931243896484375,20.9958553314209,22.075653076171875,112.52331733703613
1759168514.8135912,1759168514.9203405,194.17500495910645,0.44798851013183594,0.0667572021484375,21.551847457885742,21.61860466003418,22.797584533691406,111.90581321716309
1759168515.0085566,1759168515.0982983,177.52408981323242,0.40411949157714844,0.06723403930664062,21.836280822753906,21.903514862060547,23.81610870361328,131.40392303466797
1759168515.1861794,1759168515.275298,177.63853073120117,0.5524158477783203,0.06699562072753906,21.198272705078125,21.265268325805664,23.555278778076172,112.49828338623047
1759168515.3646123,1759168515.4531608,159.02328491210938,2.1250247955322266,0.06771087646484375,19.980430603027344,20.048141479492188,24.070024490356445,111.75942420959473
1759168515.5237832,1759168515.6331265,155.66730499267578,0.3268718719482422,0.07271766662597656,21.04806900024414,21.120786666870117,21.950483322143555,112.95413970947266
1759168515.685457,1759168515.813135,193.85886192321777,0.2644062042236328,0.06389617919921875,21.022319793701172,21.08621597290039,21.785974502563477,91.49456024169922
1759168515.8855917,1759168515.9885569,191.1599636077881,0.23746490478515625,0.06699562072753906,24.213075637817383,24.280071258544922,25.033235549926758,111.31858825683594
1759168516.0769,1759168516.1653855,137.2814178466797,0.8997917175292969,0.06532669067382812,19.746780395507812,19.81210708618164,22.30381965637207,109.7252368927002
1759168516.2143252,1759168516.3449764,179.75330352783203,0.4773139953613281,0.06985664367675781,19.796133041381836,19.865989685058594,21.167755126953125,112.40530014038086
1759168516.3984952,1759168516.5235808,196.1357593536377,0.8177757263183594,0.06365776062011719,19.890308380126953,19.95396614074707,22.407054901123047,111.55223846435547
1759168516.5947773,1759168516.701802,177.8578758239746,1.3015270233154297,0.06604194641113281,20.28822898864746,20.354270935058594,23.064851760864258,111.26708984375
1759168516.7728295,1759168516.8787644,178.0388355255127,0.2181529998779297,0.06818771362304688,24.7039794921875,24.772167205810547,25.4213809967041,111.45687103271484
1759168516.9510133,1759168517.0570774,194.88978385925293,0.6992816925048828,0.06747245788574219,21.140336990356445,21.207809448242188,23.49114418029785,131.31332397460938
1759168517.1460495,1759168517.234438,137.23516464233398,0.9186267852783203,0.06532669067382812,19.774436950683594,19.839763641357422,22.580623626708984,109.65704917907715
1759168517.2834287,1759168517.4145548,198.5182762145996,0.4749298095703125,0.06508827209472656,19.80733871459961,19.872426986694336,21.165132522583008,111.2515926361084
1759168517.4846392,1759168517.5927296,177.0303249359131,0.484466552734375,0.06365776062011719,19.850969314575195,19.914627075195312,21.362781524658203,109.70139503479004
1759168517.6665888,1759168517.771719,192.21234321594238,1.6074180603027344,0.06461143493652344,19.91415023803711,19.978761672973633,22.382736206054688,110.50653457641602
1759168517.858946,1759168517.9512198,140.90752601623535,0.5025863647460938,0.06461143493652344,19.893884658813477,19.95849609375,20.918846130371094,91.57252311706543
1759168518.0036333,1759168518.1288972,192.8868293762207,0.9405612945556641,0.06914138793945312,20.826339721679688,20.89548110961914,22.70364761352539,113.00277709960938
1759168518.1966634,1759168518.3067553,158.97107124328613,0.7691383361816406,0.06794929504394531,19.889116287231445,19.95706558227539,22.42588996887207,114.37249183654785
1759168518.3558173,1759168518.4848366,176.03445053100586,0.4715919494628906,0.06771087646484375,21.13199234008789,21.199703216552734,22.655248641967773,110.8400821685791
1759168518.540174,1759168518.6650262,192.7177906036377,0.3304481506347656,0.06389617919921875,19.64855194091797,19.712448120117188,20.663976669311523,89.84231948852539
1759168518.7371976,1759168518.8632987,193.15791130065918,0.9210109710693359,0.06389617919921875,19.705772399902344,19.769668579101562,22.562503814697266,109.89093780517578
1759168518.9304976,1759168519.0424678,178.4672737121582,0.335693359375,0.06437301635742188,19.657611846923828,19.72198486328125,20.63441276550293,91.10546112060547
1759168519.1098619,1759168519.220453,197.86405563354492,0.4398822784423828,0.06866455078125,21.55303955078125,21.6217041015625,23.860931396484375,111.17339134216309
1759168519.307872,1759168519.397388,136.7321014404297,0.5338191986083984,0.06699562072753906,20.18141746520996,20.2484130859375,22.711515426635742,90.61980247497559
1759168519.4447474,1759168519.5766232,181.09703063964844,0.33164024353027344,0.06413459777832031,19.65188980102539,19.71602439880371,20.58577537536621,91.156005859375
1759168519.6291623,1759168519.7553456,192.72828102111816,0.3428459167480469,0.06413459777832031,19.745349884033203,19.809484481811523,20.702600479125977,109.82704162597656
1759168519.835662,1759168519.9528437,164.72101211547852,0.4565715789794922,0.06365776062011719,19.816160202026367,19.879817962646484,21.3320255279541,109.14492607116699
1759168520.0038683,1759168520.0884893,190.92988967895508,0.28228759765625,0.06890296936035156,22.66716957092285,22.736072540283203,24.430274963378906,89.18642997741699
1759168520.1948972,1759168520.264807,119.73977088928223,0.8327960968017578,0.06747245788574219,19.7906494140625,19.858121871948242,21.53325080871582,90.4695987701416
1759168520.3147905,1759168520.4436278,157.50479698181152,0.4379749298095703,0.06532669067382812,19.81663703918457,19.8819637298584,21.219491958618164,89.20478820800781
1759168520.4765916,1759168520.602068,194.50044631958008,0.54168701171875,0.06556510925292969,19.717693328857422,19.78325843811035,21.19135856628418,91.78805351257324
1759168520.6746342,1759168520.7798839,171.4649200439453,0.6008148193359375,0.07486343383789062,19.872188568115234,19.947052001953125,21.385908126831055,89.62750434875488
1759168520.8462412,1759168520.9580379,179.70895767211914,0.3414154052734375,0.064849853515625,19.635677337646484,19.70052719116211,20.64800262451172,110.32247543334961
1759168521.0345905,1759168521.1583486,194.2586898803711,0.32639503479003906,0.06270408630371094,19.731521606445312,19.794225692749023,20.74742317199707,109.8029613494873
1759168521.237588,1759168521.3568091,206.96353912353516,0.6222724914550781,0.06413459777832031,20.860671997070312,20.924806594848633,22.168397903442383,110.29052734375
1759168521.4476683,1759168521.5355184,175.15015602111816,0.4858970642089844,0.06794929504394531,20.97630500793457,21.044254302978516,22.466659545898438,109.92765426635742
1759168521.6229596,1759168521.71235,158.67137908935547,0.8771419525146484,0.06508827209472656,19.823074340820312,19.88816261291504,22.374629974365234,110.90874671936035
1759168521.7817795,1759168521.89117,176.3913631439209,1.4717578887939453,0.06556510925292969,20.151853561401367,20.217418670654297,23.056745529174805,111.38153076171875
1759168521.958316,1759168522.0681987,182.31797218322754,1.4867782592773438,0.06532669067382812,20.23625373840332,20.30158042907715,23.47421646118164,132.26795196533203
1759168522.1414456,1759168522.246436,193.26543807983398,0.6656646728515625,0.06794929504394531,24.172067642211914,24.24001693725586,26.343822479248047,110.54849624633789
1759168522.334855,1759168522.4227421,136.39497756958008,0.8485317230224609,0.06413459777832031,19.76490020751953,19.82903480529785,22.585630416870117,108.96563529968262
1759168522.4713945,1759168522.6028607,201.24173164367676,0.4138946533203125,0.06413459777832031,19.811153411865234,19.875288009643555,21.12293243408203,111.30261421203613
1759168522.6728222,1759168522.7809267,174.35836791992188,0.5407333374023438,0.072479248046875,19.694805145263672,19.767284393310547,21.25406265258789,130.80358505249023
1759168522.8528223,1759168522.9377754,171.86284065246582,0.8318424224853516,0.06890296936035156,20.738601684570312,20.807504653930664,23.202180862426758,110.81457138061523
1759168523.0248306,1759168523.1155434,160.79998016357422,0.8194446563720703,0.06723403930664062,19.85764503479004,19.92487907409668,22.739171981811523,111.43779754638672
1759168523.1857302,1759168523.2943091,181.1199188232422,1.3685226440429688,0.06508827209472656,20.128488540649414,20.19357681274414,22.16029167175293,111.26303672790527
1759168523.3715916,1759168523.4955122,190.4435157775879,0.6833076477050781,0.06461143493652344,19.670486450195312,19.735097885131836,22.0639705657959,91.02487564086914
1759168523.5621774,1759168523.6725745,200.45804977416992,1.6987323760986328,0.06508827209472656,19.73557472229004,19.800662994384766,21.836042404174805,111.541748046875
1759168523.771592,1759168523.8747385,191.26343727111816,0.6005764007568359,0.06413459777832031,19.657135009765625,19.721269607543945,20.847082138061523,110.11052131652832
1759168523.9632826,1759168524.0531774,195.78027725219727,0.6768703460693359,0.06842613220214844,19.740581512451172,19.80900764465332,22.134780883789062,111.40203475952148
1759168524.1592138,1759168524.2317123,158.4937572479248,0.7565021514892578,0.07367134094238281,19.8061466217041,19.879817962646484,22.33600616455078,93.31321716308594
1759168524.321643,1759168524.411125,175.40740966796875,0.5052089691162109,0.06580352783203125,21.126985549926758,21.19278907775879,22.50838279724121,92.03195571899414
1759168524.497195,1759168524.5892239,160.48002243041992,0.6296634674072266,0.06651878356933594,19.567489624023438,19.634008407592773,20.819664001464844,91.86553955078125
1759168524.6615922,1759168524.764777,191.97487831115723,1.2390613555908203,0.06818771362304688,21.84438705444336,21.912574768066406,23.93198013305664,132.6131820678711
1759168524.8537147,1759168524.942224,157.06133842468262,0.7123947143554688,0.06604194641113281,21.210432052612305,21.276473999023438,22.647857666015625,109.83419418334961
1759168525.0126357,1759168525.121738,179.2585849761963,0.545501708984375,0.06365776062011719,19.662857055664062,19.72651481628418,21.149396896362305,111.01603507995605
1759168525.1920698,1759168525.299361,175.0178337097168,0.5040168762207031,0.06771087646484375,20.196199417114258,20.2639102935791,21.810293197631836,110.10074615478516
1759168525.3672328,1759168525.4781196,199.0363597869873,0.5781650543212891,0.06532669067382812,20.727872848510742,20.79319953918457,21.927356719970703,110.83507537841797
1759168525.5688446,1759168525.6581495,178.83896827697754,0.4572868347167969,0.06747245788574219,20.67422866821289,20.741701126098633,22.778987884521484,111.65237426757812
1759168525.7480757,1759168525.835932,174.6690273284912,0.3364086151123047,0.06866455078125,22.768020629882812,22.836685180664062,24.675369262695312,92.03481674194336
1759168525.9228919,1759168526.0131028,159.74140167236328,0.8413791656494141,0.06794929504394531,19.83189582824707,19.899845123291016,21.81529998779297,111.96565628051758
1759168526.0827837,1759168526.1926064,197.25680351257324,0.8263587951660156,0.06413459777832031,19.757747650146484,19.821882247924805,22.20749855041504,111.4802360534668
1759168526.2801883,1759168526.368857,163.44523429870605,1.9159317016601562,0.07152557373046875,19.890546798706055,19.962072372436523,23.347139358520508,110.6259822845459
1759168526.44378,1759168526.547435,172.15228080749512,1.556396484375,0.06651878356933594,20.203590393066406,20.270109176635742,23.464441299438477,111.23371124267578
1759168526.6168597,1759168526.728762,180.77659606933594,0.47898292541503906,0.06818771362304688,19.938945770263672,20.00713348388672,21.375179290771484,93.22595596313477
1759168526.7978203,1759168526.906084,196.12479209899902,0.4398822784423828,0.06699562072753906,21.651744842529297,21.718740463256836,22.908449172973633,112.5345230102539
1759168526.994089,1759168527.0837214,137.09545135498047,0.8122920989990234,0.06699562072753906,19.91581916809082,19.98281478881836,22.719383239746094,91.05682373046875
1759168527.134594,1759168527.262785,153.70869636535645,0.4050731658935547,0.06341934204101562,19.6840763092041,19.747495651245117,20.675182342529297,70.07622718811035
1759168527.2884395,1759168527.3947737,195.3299045562744,0.23937225341796875,0.06961822509765625,24.251937866210938,24.321556091308594,24.9021053314209,111.0982894897461
1759168527.487036,1759168527.5739353,175.03857612609863,0.13875961303710938,0.06842613220214844,25.203227996826172,25.27165412902832,25.70819854736328,89.12277221679688
1759168527.6676328,1759168527.7530727,192.6717758178711,0.2052783966064453,0.06771087646484375,24.494647979736328,24.562358856201172,25.07758140563965,89.71786499023438
1759168527.860449,1759168527.929859,117.00153350830078,0.49757957458496094,0.0667572021484375,20.19214630126953,20.25890350341797,21.750211715698242,91.1111831665039
1759168527.9776103,1759168528.1089458,178.82823944091797,1.4548301696777344,0.06628036499023438,19.86861228942871,19.934892654418945,21.921634674072266,91.45545959472656
1759168528.1585927,1759168528.2666564,179.52489852905273,0.3941059112548828,0.06747245788574219,22.670984268188477,22.73845672607422,23.91362190246582,111.54294013977051
1759168528.338263,1759168528.4429665,193.5579776763916,0.3628730773925781,0.06604194641113281,22.852659225463867,22.918701171875,23.926496505737305,131.08444213867188
1759168528.5319657,1759168528.6195805,139.66751098632812,0.90789794921875,0.06937980651855469,19.628524780273438,19.697904586791992,22.23491668701172,108.80231857299805
1759168528.6717794,1759168528.79917,176.10645294189453,0.4761219024658203,0.06389617919921875,19.89603042602539,19.95992660522461,21.433591842651367,109.90619659423828
1759168528.8574612,1759168528.9788213,197.38483428955078,0.3151893615722656,0.06413459777832031,19.84119415283203,19.90532875061035,20.79463005065918,109.5890998840332
1759168529.0595922,1759168529.1773703,174.28278923034668,0.5106925964355469,0.06437301635742188,19.724607467651367,19.78898048400879,21.239757537841797,109.82894897460938
1759168529.2386072,1759168529.3565094,205.25121688842773,0.43129920959472656,0.06389617919921875,21.04020118713379,21.104097366333008,22.065401077270508,110.05473136901855
1759168529.4446115,1759168529.5352898,177.6742935180664,1.5239715576171875,0.06508827209472656,19.863128662109375,19.9282169342041,22.04155921936035,110.27669906616211
1759168529.622431,1759168529.7147336,160.68553924560547,0.34499168395996094,0.064849853515625,19.787073135375977,19.8519229888916,20.82657814025879,109.82036590576172
1759168529.7915897,1759168529.8926976,170.1641082763672,0.48065185546875,0.06341934204101562,19.870519638061523,19.93393898010254,21.225690841674805,109.67540740966797
1759168529.9638608,1759168530.0715554,195.80674171447754,1.3267993927001953,0.06628036499023438,19.628047943115234,19.69432830810547,21.44598960876465,109.84015464782715
1759168530.162378,1759168530.247853,172.82867431640625,0.2148151397705078,0.06937980651855469,23.23293685913086,23.302316665649414,25.034427642822266,89.72811698913574
1759168530.3385937,1759168530.425444,174.98397827148438,1.0771751403808594,0.06628036499023438,21.502256393432617,21.56853675842285,24.211883544921875,112.96772956848145
1759168530.51372,1759168530.6032202,157.12523460388184,0.7910728454589844,0.06699562072753906,19.78015899658203,19.84715461730957,22.629976272583008,111.3884449005127
1759168530.6716332,1759168530.7817495,196.82788848876953,1.6510486602783203,0.06651878356933594,19.794940948486328,19.861459732055664,22.989273071289062,111.4201545715332
1759168530.8686178,1759168530.9574828,158.63728523254395,2.202272415161133,0.06604194641113281,19.95110511779785,20.017147064208984,23.74100685119629,111.6948127746582
1759168531.02968,1759168531.1369889,176.17082595825195,1.4269351959228516,0.06437301635742188,19.662857055664062,19.727230072021484,21.69179916381836,112.51235008239746
1759168531.2099144,1759168531.3163393,192.4002170562744,0.640869140625,0.064849853515625,19.698143005371094,19.76299285888672,20.85113525390625,110.05544662475586
1759168531.4024563,1759168531.4933796,177.71220207214355,1.4543533325195312,0.06723403930664062,20.108699798583984,20.175933837890625,23.046255111694336,110.47625541687012
1759168531.5805564,1759168531.670248,177.6285171508789,0.4456043243408203,0.06937980651855469,22.373437881469727,22.44281768798828,24.378061294555664,111.2980842590332
1759168531.7590008,1759168531.8475292,157.2277545928955,0.698089599609375,0.06580352783203125,21.122455596923828,21.18825912475586,23.74887466430664,111.29164695739746
1759168531.9186382,1759168532.0264184,176.61285400390625,0.6155967712402344,0.06532669067382812,21.18372917175293,21.249055862426758,23.429393768310547,112.08033561706543
1759168532.0961745,1759168532.2069926,180.46092987060547,0.44608116149902344,0.07462501525878906,21.44336700439453,21.51799201965332,22.777557373046875,113.19088935852051
1759168532.2768195,1759168532.386057,197.1588134765625,0.6160736083984375,0.06771087646484375,20.946979522705078,21.014690399169922,22.54772186279297,111.93466186523438
1759168532.4741218,1759168532.5636528,136.6133689880371,0.7998943328857422,0.07343292236328125,19.715547561645508,19.78898048400879,22.249937057495117,90.91854095458984
1759168532.6108778,1759168532.74266,178.0540943145752,0.33926963806152344,0.06365776062011719,19.672870635986328,19.736528396606445,20.571231842041016,91.90750122070312
1759168532.797591,1759168532.9216363,192.0919418334961,0.2384185791015625,0.06341934204101562,21.109580993652344,21.17300033569336,21.84772491455078,91.71581268310547
1759168532.9942129,1759168533.0987375,174.4229793548584,1.4200210571289062,0.06771087646484375,21.567821502685547,21.63553237915039,23.913145065307617,111.6187572479248
1759168533.1688197,1759168533.2775588,196.03872299194336,0.5910396575927734,0.06842613220214844,22.273540496826172,22.34196662902832,23.675203323364258,111.3274097442627
1759168533.3651075,1759168533.4552097,178.21311950683594,0.4189014434814453,0.06651878356933594,21.875381469726562,21.9419002532959,23.096799850463867,131.62875175476074
1759168533.5434666,1759168533.6334271,157.90796279907227,0.5140304565429688,0.06723403930664062,20.188331604003906,20.255565643310547,21.900653839111328,111.05608940124512
1759168533.7015278,1759168533.8116841,197.68571853637695,0.7750988006591797,0.0705718994140625,19.928693771362305,19.999265670776367,22.570371627807617,110.10622978210449
1759168533.899355,1759168533.9900467,180.33766746520996,1.4274120330810547,0.072479248046875,19.7756290435791,19.848108291625977,21.942138671875,131.03127479553223
1759168534.0798392,1759168534.170023,196.69508934020996,0.4115104675292969,0.0743865966796875,20.279407501220703,20.35379409790039,21.442413330078125,110.22329330444336
1759168534.2766805,1759168534.3465428,137.6638412475586,1.617431640625,0.06842613220214844,20.02573013305664,20.09415626525879,22.97496795654297,93.18232536315918
1759168534.4144895,1759168534.5247583,160.14432907104492,1.6164779663085938,0.06556510925292969,20.044565200805664,20.110130310058594,22.5374698638916,93.15919876098633
1759168534.5747833,1759168534.7029548,178.12323570251465,0.48470497131347656,0.07462501525878906,21.005630493164062,21.08025550842285,22.48525619506836,113.97838592529297
1759168534.753053,1759168534.8798034,196.5794563293457,1.104116439819336,0.06842613220214844,22.231101989746094,22.299528121948242,25.229215621948242,111.32454872131348
1759168534.949779,1759168535.0582435,177.17552185058594,0.8065700531005859,0.0629425048828125,21.14558219909668,21.208524703979492,23.451566696166992,111.68098449707031
1759168535.127099,1759168535.2365994,177.80709266662598,1.7960071563720703,0.06604194641113281,19.841432571411133,19.907474517822266,22.202253341674805,110.94856262207031
1759168535.3058279,1759168535.415652,163.99765014648438,0.4749298095703125,0.06341934204101562,19.898414611816406,19.961833953857422,21.431684494018555,109.4212532043457
1759168535.4705985,1759168535.5967605,193.69983673095703,0.3161430358886719,0.06365776062011719,19.702434539794922,19.76609230041504,20.657777786254883,110.46028137207031
1759168535.6682484,1759168535.7519805,190.48047065734863,0.2346038818359375,0.06747245788574219,22.942066192626953,23.009538650512695,24.663209915161133,89.34926986694336
1759168535.858875,1759168535.9286668,118.90602111816406,0.7851123809814453,0.072479248046875,20.506858825683594,20.57933807373047,23.53382110595703,92.5896167755127
1759168535.9779255,1759168536.1097574,159.30557250976562,0.3185272216796875,0.06341934204101562,19.69313621520996,19.756555557250977,20.558834075927734,71.10881805419922
1759168536.1406667,1759168536.2637124,191.76530838012695,0.7677078247070312,0.07343292236328125,22.59516716003418,22.66860008239746,25.021076202392578,112.22362518310547
1759168536.3325913,1759168536.441283,159.07883644104004,0.8084774017333984,0.0629425048828125,19.83189582824707,19.894838333129883,22.598981857299805,110.11672019958496
1759168536.4965904,1759168536.6215987,173.64001274108887,0.5252361297607422,0.06365776062011719,19.657373428344727,19.721031188964844,21.12436294555664,110.40782928466797
1759168536.675588,1759168536.800418,197.07894325256348,0.5242824554443359,0.06413459777832031,20.85566520690918,20.9197998046875,22.101163864135742,110.18157005310059
1759168536.872802,1759168536.979028,176.35798454284668,0.6017684936523438,0.06794929504394531,21.065711975097656,21.1336612701416,22.660255432128906,111.86861991882324
1759168537.0493038,1759168537.155724,195.2195167541504,0.3681182861328125,0.0667572021484375,23.09870719909668,23.165464401245117,24.17159080505371,131.0722827911377
1759168537.2446244,1759168537.3330615,161.0102653503418,0.7982254028320312,0.06270408630371094,19.76466178894043,19.82736587524414,22.185802459716797,109.26985740661621
1759168537.4057817,1759168537.513085,177.8876781463623,0.5156993865966797,0.064849853515625,20.125627517700195,20.19047737121582,21.54827117919922,111.58561706542969
1759168537.5847259,1759168537.6919215,195.23072242736816,0.7760524749755859,0.06413459777832031,19.779205322265625,19.843339920043945,22.421598434448242,129.9595832824707
1759168537.7800977,1759168537.8706284,177.88314819335938,1.6026496887207031,0.06532669067382812,19.89269256591797,19.958019256591797,22.18914031982422,110.0313663482666
1759168537.9581275,1759168538.047087,157.17792510986328,1.8954277038574219,0.06556510925292969,19.9124813079834,19.978046417236328,22.7205753326416,111.02795600891113
1759168538.116634,1759168538.225998,136.8234157562256,0.5173683166503906,0.06318092346191406,19.74654197692871,19.809722900390625,21.223068237304688,90.32773971557617
1759168538.2575355,1759168538.384153,195.14703750610352,1.3036727905273438,0.07200241088867188,19.8976993560791,19.969701766967773,21.70872688293457,90.71207046508789
1759168538.452829,1759168538.5602272,195.91450691223145,0.244140625,0.08082389831542969,24.9025821685791,24.98340606689453,26.653528213500977,112.1208667755127
1759168538.6488914,1759168538.7368479,136.84368133544922,0.9081363677978516,0.06437301635742188,19.78445053100586,19.84882354736328,21.44169807434082,109.2534065246582
1759168538.7858799,1759168538.9168632,198.7783908843994,0.4940032958984375,0.06365776062011719,19.79660987854004,19.860267639160156,21.196603775024414,111.42969131469727
1759168538.9866683,1759168539.0954955,176.62310600280762,0.8542537689208984,0.06866455078125,19.855260848999023,19.923925399780273,22.838830947875977,112.2586727142334
1759168539.1634407,1759168539.2740357,178.62606048583984,0.9355545043945312,0.064849853515625,19.95372772216797,20.018577575683594,22.963523864746094,110.8560562133789
1759168539.3456078,1759168539.4556928,186.11741065979004,0.3266334533691406,0.06413459777832031,19.78754997253418,19.8516845703125,20.755290985107422,111.03224754333496
1759168539.535632,1759168539.6565545,169.42191123962402,0.29158592224121094,0.06413459777832031,19.700050354003906,19.764184951782227,20.651817321777344,89.49136734008789
1759168539.710591,1759168539.8155162,188.3859634399414,0.2162456512451172,0.06389617919921875,19.716501235961914,19.780397415161133,20.419836044311523,89.91670608520508
1759168539.9076326,1759168539.9935787,173.2943058013916,0.2129077911376953,0.06413459777832031,19.768238067626953,19.832372665405273,20.46489715576172,88.38129043579102
1759168540.0815904,1759168540.1716583,195.45888900756836,0.5738735198974609,0.06866455078125,20.910263061523438,20.978927612304688,22.302865982055664,89.74432945251465
1759168540.2771955,1759168540.3488681,138.0753517150879,0.5183219909667969,0.06937980651855469,20.214557647705078,20.283937454223633,21.5301513671875,92.84520149230957
1759168540.4154162,1759168540.5256853,178.14970016479492,0.5180835723876953,0.06842613220214844,21.36707305908203,21.43549919128418,22.79496192932129,113.68989944458008
1759168540.594542,1759168540.704625,178.1327724456787,0.9236335754394531,0.06890296936035156,21.091222763061523,21.160125732421875,23.070096969604492,111.28854751586914
1759168540.7727728,1759168540.8833039,198.7438201904297,1.5153884887695312,0.06628036499023438,20.171403884887695,20.23768424987793,22.373437881469727,111.50407791137695
1759168540.9795897,1759168541.0858326,198.26221466064453,1.3287067413330078,0.06985664367675781,21.010398864746094,21.08025550842285,23.090600967407227,112.27917671203613
1759168541.1836023,1759168541.2654426,168.41602325439453,1.25885009765625,0.06842613220214844,21.411895751953125,21.480321884155273,23.46324920654297,89.44344520568848
1759168541.3521185,1759168541.4417076,157.47880935668945,0.5061626434326172,0.06771087646484375,20.10512351989746,20.172834396362305,22.677183151245117,111.29283905029297
1759168541.5097432,1759168541.6208222,198.48394393920898,0.5970001220703125,0.06389617919921875,20.941734313964844,21.005630493164062,22.25780487060547,111.78326606750488
1759168541.7083678,1759168541.7991676,177.67763137817383,0.5486011505126953,0.06508827209472656,21.058320999145508,21.123409271240234,23.200273513793945,131.1948299407959
1759168541.8861918,1759168541.9749026,158.44297409057617,1.9724369049072266,0.06532669067382812,19.852161407470703,19.91748809814453,22.481679916381836,111.05608940124512
1759168542.0447993,1759168542.1615267,146.6531753540039,0.48542022705078125,0.06437301635742188,19.81043815612793,19.87481117248535,21.277189254760742,96.58551216125488
1759168542.1995895,1759168542.3399217,187.699556350708,0.7979869842529297,0.06508827209472656,19.76323127746582,19.828319549560547,22.279977798461914,91.3076400756836
1759168542.3874316,1759168542.5196996,182.417631149292,0.3075599670410156,0.06556510925292969,19.679784774780273,19.745349884033203,20.542144775390625,91.39227867126465
1759168542.5745897,1759168542.6982162,195.07884979248047,0.33783912658691406,0.06461143493652344,19.61517333984375,19.679784774780273,20.63155174255371,89.35117721557617
1759168542.7698026,1759168542.8765578,178.04765701293945,0.4954338073730469,0.06842613220214844,19.892215728759766,19.960641860961914,21.47078514099121,111.33337020874023
1759168542.9479957,1759168543.0541432,175.63867568969727,0.38552284240722656,0.06651878356933594,21.2404727935791,21.306991577148438,22.66550064086914,111.61136627197266
1759168543.1238136,1759168543.2574155,234.88712310791016,0.36978721618652344,0.06699562072753906,32.44137763977051,32.50837326049805,33.24484825134277,169.82078552246094
1759168543.3588,1759168543.4469202,139.83488082885742,0.8442401885986328,0.06413459777832031,19.779682159423828,19.84381675720215,22.3543643951416,109.41433906555176
1759168543.4987824,1759168543.626886,179.09479141235352,0.47326087951660156,0.06365776062011719,19.815444946289062,19.87910270690918,21.307945251464844,109.69972610473633
1759168543.6825912,1759168543.7869365,189.79668617248535,1.3244152069091797,0.064849853515625,19.820690155029297,19.885540008544922,21.637916564941406,109.74431037902832
1759168543.883591,1759168543.9871218,191.1008358001709,1.3494491577148438,0.07677078247070312,19.788503646850586,19.86527442932129,21.645307540893555,109.89975929260254
1759168544.0795782,1759168544.1638,171.3578701019287,0.2143383026123047,0.06961822509765625,23.179054260253906,23.248672485351562,24.976491928100586,89.4923210144043
1759168544.251081,1759168544.3410573,158.0507755279541,0.8254051208496094,0.06771087646484375,19.746065139770508,19.81377601623535,22.914886474609375,110.62908172607422
1759168544.4106345,1759168544.519626,179.22425270080566,1.447439193725586,0.06556510925292969,19.838333129882812,19.903898239135742,21.961688995361328,111.3286018371582
1759168544.5945895,1759168544.7205374,194.31257247924805,1.7158985137939453,0.0667572021484375,19.75274085998535,19.81949806213379,22.08256721496582,111.71126365661621
1759168544.7924576,1759168544.900935,196.24042510986328,0.42057037353515625,0.06604194641113281,20.935535430908203,21.001577377319336,21.869897842407227,110.17441749572754
1759168544.9934916,1759168545.080326,177.14262008666992,0.21529197692871094,0.06413459777832031,19.858598709106445,19.922733306884766,20.55525779724121,88.16838264465332
1759168545.1707826,1759168545.2586746,177.85191535949707,0.213623046875,0.06389617919921875,19.73581314086914,19.79970932006836,20.4470157623291,88.2573127746582
1759168545.3494058,1759168545.437232,174.2875576019287,0.3294944763183594,0.064849853515625,19.701719284057617,19.766569137573242,20.600557327270508,88.74106407165527
1759168545.5275898,1759168545.6136062,193.267822265625,0.5400180816650391,0.06818771362304688,22.196054458618164,22.26424217224121,23.44655990600586,90.01302719116211
1759168545.721002,1759168545.7904146,116.57476425170898,0.823974609375,0.06747245788574219,19.84238624572754,19.90985870361328,22.42755889892578,90.82269668579102
1759168545.840591,1759168545.970878,175.2173900604248,0.3266334533691406,0.06389617919921875,19.583702087402344,19.647598266601562,20.514726638793945,92.132568359375
1759168546.0246053,1759168546.1495657,197.30830192565918,1.3473033905029297,0.06651878356933594,19.800662994384766,19.8671817779541,21.640539169311523,91.12763404846191
1759168546.222054,1759168546.3481588,193.27473640441895,1.7046928405761719,0.06508827209472656,19.694089889526367,19.759178161621094,21.92068099975586,111.7558479309082
1759168546.4154704,1759168546.5244079,178.09605598449707,1.6047954559326172,0.06556510925292969,20.228147506713867,20.293712615966797,22.701263427734375,131.8964958190918
1759168546.5937114,1759168546.7037039,178.53760719299316,1.9333362579345703,0.064849853515625,19.781827926635742,19.846677780151367,23.309707641601562,131.96969032287598
1759168546.7723484,1759168546.8814282,160.94303131103516,0.6554126739501953,0.06413459777832031,21.16990089416504,21.23403549194336,23.532867431640625,132.9824924468994
1759168546.9336727,1759168547.038214,193.10808181762695,0.2434253692626953,0.07581710815429688,24.687767028808594,24.76358413696289,26.423215866088867,110.99505424499512
1759168547.1269276,1759168547.215281,141.70551300048828,0.8518695831298828,0.06461143493652344,19.83952522277832,19.904136657714844,22.59969711303711,110.17036437988281
1759168547.268781,1759168547.395201,174.98302459716797,0.4749298095703125,0.06508827209472656,19.839763641357422,19.90485191345215,21.378278732299805,108.60753059387207
1759168547.4534554,1759168547.5739436,172.2855567932129,0.4482269287109375,0.06532669067382812,20.052433013916016,20.117759704589844,21.558523178100586,109.30895805358887
1759168547.62959,1759168547.7325926,189.0401840209961,0.6971359252929688,0.06437301635742188,19.750118255615234,19.814491271972656,21.027565002441406,110.11099815368652
1759168547.8225927,1759168547.911372,177.5205135345459,0.6933212280273438,0.06461143493652344,20.020246505737305,20.084857940673828,21.360397338867188,90.56377410888672
1759168548.002676,1759168548.0905602,154.0369987487793,0.560760498046875,0.06365776062011719,19.856929779052734,19.92058753967285,21.216392517089844,91.86530113220215
1759168548.1596677,1759168548.2702875,197.48592376708984,1.3642311096191406,0.06818771362304688,20.209074020385742,20.27726173400879,23.237943649291992,94.87128257751465
1759168548.3572984,1759168548.4467442,157.71150588989258,0.5211830139160156,0.06866455078125,22.30358123779297,22.37224578857422,24.440765380859375,114.00699615478516
1759168548.515893,1759168548.625085,178.79581451416016,1.7364025115966797,0.06771087646484375,19.927978515625,19.995689392089844,23.75960350036621,131.49523735046387
1759168548.697839,1759168548.8051887,196.519136428833,0.3578662872314453,0.06818771362304688,21.404743194580078,21.472930908203125,23.486614227294922,111.53292655944824
1759168548.8945167,1759168548.9846725,178.4205436706543,0.8766651153564453,0.064849853515625,19.768238067626953,19.833087921142578,21.445274353027344,111.90223693847656
1759168549.075921,1759168549.1638918,175.6918430328369,1.708984375,0.06818771362304688,19.794940948486328,19.863128662109375,23.265838623046875,113.1737232208252
1759168549.2517557,1759168549.341766,158.04314613342285,0.39839744567871094,0.06866455078125,21.725177764892578,21.793842315673828,23.801803588867188,113.4791374206543
1759168549.4099443,1759168549.5190015,159.0116024017334,0.7929801940917969,0.06961822509765625,21.165847778320312,21.23546600341797,23.66805076599121,133.24904441833496
1759168549.5765944,1759168549.7005053,191.30635261535645,1.5444755554199219,0.06723403930664062,20.152568817138672,20.219802856445312,23.227214813232422,112.38288879394531
1759168549.7680545,1759168549.8792486,186.62047386169434,1.817941665649414,0.06890296936035156,20.431995391845703,20.500898361206055,23.17023277282715,135.09202003479004
1759168549.962615,1759168550.0637891,177.75774002075195,0.3712177276611328,0.07200241088867188,24.286270141601562,24.358272552490234,25.6192684173584,134.8586082458496
1759168550.140569,1759168550.245702,178.1294345855713,1.6205310821533203,0.06771087646484375,20.226478576660156,20.294189453125,22.9184627532959,132.73000717163086
1759168550.319168,1759168550.4273295,196.29311561584473,0.492095947265625,0.06794929504394531,20.21646499633789,20.284414291381836,21.584510803222656,110.81910133361816
1759168550.5164,1759168550.6070924,178.4195899963379,1.5745162963867188,0.06842613220214844,19.988059997558594,20.056486129760742,22.565603256225586,111.45186424255371
1759168550.6949673,1759168550.7852998,161.6666316986084,0.8828639984130859,0.06389617919921875,19.824981689453125,19.888877868652344,21.592140197753906,110.66222190856934
1759168550.8567808,1759168550.9647753,195.19472122192383,0.5877017974853516,0.06413459777832031,20.815372467041016,20.879507064819336,22.03083038330078,111.43040657043457
1759168551.0529351,1759168551.1450527,179.7006130218506,0.4894733428955078,0.06866455078125,20.221233367919922,20.289897918701172,22.647857666015625,111.4506721496582
1759168551.2327354,1759168551.3205903,177.09112167358398,0.13637542724609375,0.06580352783203125,24.60002899169922,24.66583251953125,26.197433471679688,111.11569404602051
1759168551.413226,1759168551.4993887,174.22223091125488,0.12063980102539062,0.06794929504394531,25.583744049072266,25.65169334411621,26.062726974487305,89.48588371276855
1759168551.5876079,1759168551.6758852,141.02602005004883,0.8983612060546875,0.064849853515625,19.788265228271484,19.85311508178711,21.435976028442383,109.24506187438965
1759168551.728734,1759168551.8559492,178.15375328063965,0.5013942718505859,0.07152557373046875,19.827604293823242,19.89912986755371,21.413564682006836,109.43722724914551
1759168551.911731,1759168552.0147305,189.70918655395508,1.4078617095947266,0.06508827209472656,19.613265991210938,19.678354263305664,21.58665657043457,110.43024063110352
1759168552.1015992,1759168552.1940143,178.30395698547363,0.6089210510253906,0.06604194641113281,19.74010467529297,19.8061466217041,21.102428436279297,111.49406433105469
1759168552.2799995,1759168552.3514175,177.81853675842285,0.4258155822753906,0.06890296936035156,21.35777473449707,21.426677703857422,22.579669952392578,111.21678352355957
1759168552.457962,1759168552.5294085,137.79568672180176,0.7202625274658203,0.06747245788574219,19.753456115722656,19.8209285736084,22.369861602783203,91.83883666992188
1759168552.5966356,1759168552.707671,179.04901504516602,0.26345252990722656,0.06508827209472656,21.043062210083008,21.108150482177734,21.79241180419922,90.85392951965332
1759168552.7845902,1759168552.907391,193.04203987121582,0.6909370422363281,0.06461143493652344,19.816160202026367,19.88077163696289,21.288633346557617,91.26400947570801
1759168552.9777772,1759168553.084396,174.8788356781006,0.7910728454589844,0.0667572021484375,21.08478546142578,21.15154266357422,23.49233627319336,111.33313179016113
1759168553.1575546,1759168553.2868414,195.60813903808594,0.23674964904785156,0.06437301635742188,21.1029052734375,21.167278289794922,21.83675765991211,90.9426212310791
1759168553.357878,1759168553.4625633,192.43931770324707,0.26917457580566406,0.06842613220214844,24.070262908935547,24.138689041137695,25.821208953857422,111.00435256958008
1759168553.550463,1759168553.6383696,140.17128944396973,0.8950233459472656,0.06437301635742188,19.73891258239746,19.803285598754883,21.49796485900879,108.34217071533203
1759168553.6907802,1759168553.8161697,176.85794830322266,0.8969306945800781,0.06413459777832031,20.168304443359375,20.232439041137695,22.99189567565918,109.06720161437988
1759168553.8677862,1759168553.9959478,179.0626049041748,0.4715919494628906,0.06341934204101562,19.858598709106445,19.92201805114746,21.399497985839844,107.98239707946777
1759168554.0565886,1759168554.1743798,173.2919216156006,0.5345344543457031,0.06341934204101562,19.6990966796875,19.762516021728516,21.31509780883789,110.1827621459961
1759168554.2302883,1759168554.3342302,171.4015007019043,0.2257823944091797,0.07081031799316406,21.18062973022461,21.251440048217773,21.853923797607422,110.28242111206055
1759168554.4064484,1759168554.5105395,192.6720142364502,0.4215240478515625,0.06961822509765625,24.140119552612305,24.20973777770996,24.98793601989746,111.55939102172852
1759168554.5992634,1759168554.6873736,159.37113761901855,0.8499622344970703,0.06556510925292969,19.724607467651367,19.790172576904297,22.48239517211914,109.77053642272949
1759168554.7587848,1759168554.8673394,160.12072563171387,0.5128383636474609,0.06461143493652344,19.91868019104004,19.983291625976562,21.391868591308594,111.82332038879395
1759168554.9235919,1759168555.0472896,211.2724781036377,1.7957687377929688,0.06556510925292969,19.74654197692871,19.81210708618164,22.084712982177734,111.44876480102539
1759168555.1350048,1759168555.2254238,157.81927108764648,1.6207695007324219,0.06413459777832031,19.915103912353516,19.979238510131836,22.339820861816406,111.9379997253418
1759168555.2929678,1759168555.4041994,178.93528938293457,0.7171630859375,0.06604194641113281,21.21734619140625,21.283388137817383,23.490190505981445,112.30325698852539
1759168555.4756339,1759168555.584362,176.9094467163086,0.6225109100341797,0.07653236389160156,21.880149841308594,21.956682205200195,24.205684661865234,113.9986515045166
1759168555.6526883,1759168555.7617905,182.94692039489746,1.585245132446289,0.06985664367675781,20.181655883789062,20.25151252746582,22.476911544799805,110.72945594787598
1759168555.835832,1759168555.9418283,174.2837429046631,0.45680999755859375,0.06651878356933594,20.322084426879883,20.38860321044922,22.830724716186523,111.58227920532227
1759168556.0136356,1759168556.1220229,179.03804779052734,1.5323162078857422,0.06842613220214844,19.913196563720703,19.98162269592285,22.558212280273438,110.42618751525879
1759168556.192819,1759168556.301507,182.62147903442383,0.3418922424316406,0.06437301635742188,19.73128318786621,19.795656204223633,20.7822322845459,111.01627349853516
1759168556.379588,1759168556.5021024,172.34349250793457,0.3147125244140625,0.06413459777832031,19.819259643554688,19.883394241333008,20.800352096557617,91.04728698730469
1759168556.556603,1759168556.681258,193.115234375,0.4630088806152344,0.0705718994140625,20.780086517333984,20.850658416748047,21.747350692749023,91.08519554138184
1759168556.7538738,1759168556.856512,176.79786682128906,0.18334388732910156,0.0667572021484375,24.521589279174805,24.588346481323242,25.157690048217773,111.54341697692871
1759168556.9309616,1759168557.0360038,193.81380081176758,0.7259845733642578,0.06842613220214844,23.844480514526367,23.912906646728516,24.99222755432129,111.88197135925293
1759168557.1249216,1759168557.2129798,138.69023323059082,0.8471012115478516,0.06341934204101562,20.325899124145508,20.389318466186523,22.045135498046875,110.01229286193848
1759168557.2637548,1759168557.3936455,199.88179206848145,1.6214847564697266,0.06604194641113281,19.872426986694336,19.93846893310547,22.426366806030273,111.55509948730469
1759168557.463785,1759168557.5727913,176.44476890563965,0.7665157318115234,0.06437301635742188,19.70505714416504,19.76943016052246,21.033048629760742,111.55462265014648
1759168557.640375,1759168557.751207,178.3607006072998,0.7250308990478516,0.06413459777832031,19.66691017150879,19.73104476928711,22.1402645111084,111.18412017822266
1759168557.81888,1759168557.930666,181.53095245361328,1.6431808471679688,0.06651878356933594,19.942283630371094,20.00880241394043,22.510528564453125,112.57314682006836
1759168558.0045903,1759168558.110019,175.31633377075195,0.37980079650878906,0.06771087646484375,20.383596420288086,20.45130729675293,22.628068923950195,112.84875869750977
1759168558.1800473,1759168558.2869174,176.86891555786133,0.38743019104003906,0.06771087646484375,22.97234535217285,23.040056228637695,24.208784103393555,111.3131046295166
1759168558.3572907,1759168558.464582,194.85807418823242,0.45490264892578125,0.06651878356933594,21.767854690551758,21.834373474121094,23.017406463623047,111.74559593200684
1759168558.552293,1759168558.6424568,157.71842002868652,0.8971691131591797,0.06413459777832031,19.866228103637695,19.930362701416016,22.593259811401367,111.91177368164062
1759168558.7101092,1759168558.820357,156.83913230895996,0.7519721984863281,0.06461143493652344,19.777774810791016,19.84238624572754,22.284746170043945,111.84287071228027
1759168558.87559,1759168559.000745,172.44553565979004,0.31065940856933594,0.06270408630371094,19.686222076416016,19.748926162719727,20.6449031829834,90.44003486633301
1759168559.0525203,1759168559.1793551,192.7170753479004,1.401662826538086,0.06604194641113281,19.92654800415039,19.992589950561523,21.834850311279297,91.30239486694336
1759168559.2453806,1759168559.3523083,177.2453784942627,0.6825923919677734,0.06365776062011719,21.724462509155273,21.78812026977539,24.211883544921875,130.24616241455078
1759168559.4227743,1759168559.5321677,180.86004257202148,1.5671253204345703,0.06628036499023438,19.806861877441406,19.87314224243164,22.294282913208008,130.77592849731445
1759168559.60408,1759168559.7107162,195.50776481628418,0.3647804260253906,0.06556510925292969,23.042917251586914,23.108482360839844,24.94525909423828,111.86790466308594
1759168559.7997305,1759168559.8881485,157.61041641235352,0.8111000061035156,0.06389617919921875,19.93393898010254,19.997835159301758,22.62115478515625,132.6620578765869
1759168559.957487,1759168560.0667431,183.366060256958,0.4050731658935547,0.06389617919921875,21.28291130065918,21.3468074798584,22.669553756713867,129.5473575592041
1759168560.1412656,1759168560.2464738,177.02984809875488,0.4487037658691406,0.06532669067382812,19.809722900390625,19.875049591064453,21.262407302856445,129.42981719970703
1759168560.3186612,1759168560.4039965,192.58427619934082,0.4210472106933594,0.06818771362304688,21.23713493347168,21.305322647094727,22.402524948120117,110.55541038513184
1759168560.511391,1759168560.5809827,116.70184135437012,0.7803440093994141,0.0667572021484375,19.760847091674805,19.827604293823242,21.44336700439453,89.29276466369629
1759168560.628236,1759168560.758385,160.59613227844238,0.4487037658691406,0.06318092346191406,19.79851722717285,19.861698150634766,21.21448516845703,90.34466743469238
1759168560.7889247,1759168560.9170349,194.9319839477539,0.30922889709472656,0.06413459777832031,21.193981170654297,21.258115768432617,22.05801010131836,91.76445007324219
1759168560.9925902,1759168561.117723,198.11749458312988,0.606536865234375,0.06604194641113281,20.023584365844727,20.08962631225586,22.359609603881836,91.65763854980469
1759168561.1910913,1759168561.2950222,176.58162117004395,1.4293193817138672,0.07081031799316406,20.17664909362793,20.247459411621094,23.349285125732422,110.90207099914551
1759168561.3678193,1759168561.4731972,192.8994655609131,1.7371177673339844,0.06556510925292969,19.74797248840332,19.81353759765625,21.993637084960938,131.47687911987305
1759168561.560865,1759168561.652233,178.47418785095215,1.7201900482177734,0.06532669067382812,20.114898681640625,20.180225372314453,22.23992347717285,110.54444313049316
1759168561.7394397,1759168561.8286412,157.7448844909668,1.5413761138916016,0.06580352783203125,20.108699798583984,20.174503326416016,23.353099822998047,111.45758628845215
1759168561.8973289,1759168562.0082495,178.0102252960205,1.4858245849609375,0.06461143493652344,19.810199737548828,19.87481117248535,21.883487701416016,90.97862243652344
1759168562.0754852,1759168562.1874747,179.18086051940918,1.409769058227539,0.06532669067382812,19.913673400878906,19.979000091552734,21.94690704345703,113.23404312133789
1759168562.2578962,1759168562.3662791,195.908784866333,0.4432201385498047,0.06628036499023438,21.47197723388672,21.538257598876953,23.57316017150879,111.75036430358887
1759168562.45395,1759168562.5438192,137.32481002807617,0.5235671997070312,0.06580352783203125,20.05457878112793,20.12038230895996,21.446704864501953,90.63506126403809
1759168562.5935922,1759168562.7229424,200.08325576782227,1.4483928680419922,0.06508827209472656,19.861698150634766,19.926786422729492,21.919965744018555,112.6856803894043
1759168562.7941084,1759168562.9013834,176.8031120300293,0.4277229309082031,0.06651878356933594,21.409988403320312,21.47650718688965,23.755550384521484,111.61231994628906
1759168562.97459,1759168563.0794847,193.3271884918213,1.6508102416992188,0.06794929504394531,21.196842193603516,21.26479148864746,23.652076721191406,132.07030296325684
1759168563.1680856,1759168563.2577739,157.49263763427734,0.8194446563720703,0.0667572021484375,19.849300384521484,19.916057586669922,22.484779357910156,111.25302314758301
1759168563.3257213,1759168563.436018,197.29089736938477,1.5175342559814453,0.06532669067382812,20.131349563598633,20.19667625427246,22.300243377685547,110.95952987670898
1759168563.5237463,1759168563.6141245,177.8430938720703,0.32830238342285156,0.07891654968261719,22.925853729248047,23.004770278930664,24.072647094726562,110.88347434997559
1759168563.7017334,1759168563.7910228,136.53230667114258,0.5583763122558594,0.06604194641113281,20.254135131835938,20.32017707824707,21.712064743041992,89.2326831817627
1759168563.8384085,1759168563.968812,180.3722381591797,0.4565715789794922,0.06413459777832031,19.806861877441406,19.870996475219727,21.1637020111084,89.13087844848633
1759168564.0226307,1759168564.1473656,174.00455474853516,0.6773471832275391,0.06389617919921875,19.689559936523438,19.753456115722656,21.25096321105957,89.66612815856934
1759168564.1967833,1759168564.3263707,160.1114273071289,0.4506111145019531,0.06389617919921875,20.03788948059082,20.10178565979004,21.460294723510742,90.60096740722656
1759168564.3616033,1759168564.4853222,176.5451431274414,0.22459030151367188,0.064849853515625,21.05879783630371,21.123647689819336,21.761417388916016,90.79337120056152
1759168564.5408664,1759168564.6842396,190.11855125427246,1.7368793487548828,0.06508827209472656,19.858360290527344,19.92344856262207,21.967172622680664,91.59326553344727
1759168564.7311301,1759168564.860551,182.71160125732422,1.4200210571289062,0.06508827209472656,20.169496536254883,20.23458480834961,23.274660110473633,132.68661499023438
1759168564.9142146,1759168565.016363,182.47675895690918,0.2942085266113281,0.06842613220214844,25.414466857910156,25.482892990112305,26.079654693603516,110.81552505493164
1759168565.0977561,1759168565.2420747,191.1478042602539,0.33092498779296875,0.06318092346191406,19.71268653869629,19.775867462158203,20.649433135986328,91.30382537841797
1759168565.2928748,1759168565.397372,175.2486228942871,0.39386749267578125,0.06794929504394531,22.686481475830078,22.754430770874023,23.92292022705078,111.13786697387695
1759168565.4682665,1759168565.57467,195.32370567321777,1.4448165893554688,0.06842613220214844,21.800756454467773,21.869182586669922,25.09784698486328,111.61231994628906
1759168565.6637325,1759168565.752525,157.35626220703125,1.8498897552490234,0.06651878356933594,19.896268844604492,19.962787628173828,23.345470428466797,111.26327514648438
1759168565.821233,1759168565.9320185,178.94363403320312,0.5071163177490234,0.064849853515625,20.870208740234375,20.93505859375,22.00603485107422,112.79988288879395
1759168566.0039356,1759168566.111059,174.82900619506836,0.6043910980224609,0.06723403930664062,21.210908889770508,21.27814292907715,23.55027198791504,111.90462112426758
1759168566.1788647,1759168566.2889547,178.12418937683105,0.5733966827392578,0.06747245788574219,20.26534080505371,20.332813262939453,22.56178855895996,113.00897598266602
1759168566.3586357,1759168566.4679134,164.20364379882812,1.5041828155517578,0.06747245788574219,19.9282169342041,19.995689392089844,22.545576095581055,111.48977279663086
1759168566.5229833,1759168566.6482553,197.91364669799805,0.44345855712890625,0.06437301635742188,20.8890438079834,20.95341682434082,21.821260452270508,91.37678146362305
1759168566.7245908,1759168566.848636,190.86742401123047,0.6849765777587891,0.06508827209472656,19.776105880737305,19.84119415283203,21.254777908325195,92.0417308807373
1759168566.915616,1759168567.026421,178.056001663208,0.6091594696044922,0.064849853515625,21.26288414001465,21.327733993530273,22.52483367919922,112.0908260345459
1759168567.093817,1759168567.2052698,179.05330657958984,1.7020702362060547,0.06651878356933594,19.974946975708008,20.041465759277344,22.611141204833984,111.57989501953125
1759168567.2730122,1759168567.3837068,159.61909294128418,1.6388893127441406,0.06556510925292969,20.009279251098633,20.074844360351562,22.49741554260254,112.06746101379395
1759168567.4328115,1759168567.5611022,200.8230686187744,1.0330677032470703,0.06961822509765625,22.114276885986328,22.183895111083984,24.112701416015625,112.06412315368652
1759168567.633934,1759168567.7411873,194.71979141235352,0.3643035888671875,0.06842613220214844,21.788597106933594,21.857023239135742,23.868322372436523,132.4007511138916
1759168567.828798,1759168567.9188683,158.2801342010498,0.5383491516113281,0.06699562072753906,20.909786224365234,20.976781845092773,23.206233978271484,113.2822036743164
1759168567.9872222,1759168568.0973275,160.7367992401123,0.7445812225341797,0.06508827209472656,19.793033599853516,19.858121871948242,22.319316864013672,112.96916007995605
1759168568.148098,1759168568.254471,193.53604316711426,1.4424324035644531,0.06937980651855469,20.139694213867188,20.209074020385742,23.52166175842285,111.47761344909668
1759168568.3417776,1759168568.4313617,157.18650817871094,0.5125999450683594,0.06604194641113281,20.17664909362793,20.242691040039062,21.648883819580078,110.2437973022461
1759168568.5026324,1759168568.6105552,194.6558952331543,1.5225410461425781,0.06580352783203125,19.681215286254883,19.747018814086914,21.90375328063965,109.8029613494873
1759168568.6974318,1759168568.7892203,159.87014770507812,0.3571510314941406,0.06341934204101562,19.724130630493164,19.78754997253418,20.721435546875,109.6043586730957
1759168568.861232,1759168568.945733,170.38488388061523,0.8153915405273438,0.06914138793945312,21.00086212158203,21.070003509521484,22.667407989501953,89.72716331481934
1759168569.0345926,1759168569.1241171,176.29408836364746,0.7295608520507812,0.06794929504394531,21.54827117919922,21.616220474243164,23.129940032958984,112.24246025085449
1759168569.2109954,1759168569.300784,178.31730842590332,0.5548000335693359,0.06628036499023438,22.745609283447266,22.8118896484375,25.15578269958496,112.92886734008789
1759168569.389464,1759168569.4775627,142.17400550842285,0.8614063262939453,0.06365776062011719,19.797086715698242,19.86074447631836,22.638559341430664,109.41958427429199
1759168569.531786,1759168569.6576116,176.5146255493164,0.5354881286621094,0.06318092346191406,19.776105880737305,19.83928680419922,21.23260498046875,111.47356033325195
1759168569.7084386,1759168569.815569,180.40013313293457,0.4532337188720703,0.06747245788574219,19.90199089050293,19.969463348388672,21.436214447021484,110.15129089355469
1759168569.8889832,1759168569.993988,191.37954711914062,0.6976127624511719,0.06508827209472656,19.711732864379883,19.77682113647461,21.176576614379883,110.23092269897461
1759168570.0805182,1759168570.172463,177.91175842285156,1.0139942169189453,0.07128715515136719,19.7293758392334,19.800662994384766,22.2930908203125,90.66295623779297
1759168570.2585838,1759168570.3509946,178.9720058441162,0.5693435668945312,0.06508827209472656,21.027803421020508,21.092891693115234,21.96478843688965,91.53532981872559
1759168570.4406912,1759168570.5298858,175.20952224731445,0.3783702850341797,0.06985664367675781,21.291255950927734,21.361112594604492,22.524118423461914,90.05975723266602
1759168570.616045,1759168570.7062654,178.3435344696045,0.4470348358154297,0.06866455078125,21.61431312561035,21.6829776763916,23.64373207092285,112.91790008544922
1759168570.7945445,1759168570.8830423,176.8810749053955,0.5578994750976562,0.0667572021484375,21.213293075561523,21.28005027770996,22.696256637573242,111.45448684692383
1759168570.9715877,1759168571.0605402,157.56487846374512,1.6350746154785156,0.06413459777832031,19.882917404174805,19.947052001953125,22.42875099182129,109.34925079345703
1759168571.1292977,1759168571.2398126,157.5930118560791,0.5321502685546875,0.06413459777832031,19.852638244628906,19.916772842407227,21.267414093017578,112.24555969238281
1759168571.2946029,1759168571.419054,191.89214706420898,1.5141963958740234,0.06628036499023438,20.16448974609375,20.230770111083984,22.444725036621094,111.65523529052734
1759168571.490635,1759168571.597512,194.03910636901855,0.6403923034667969,0.064849853515625,21.07405662536621,21.138906478881836,23.29564094543457,111.35268211364746
1759168571.6854062,1759168571.7764606,178.33995819091797,0.335693359375,0.06723403930664062,22.580385208129883,22.647619247436523,23.772001266479492,111.49096488952637
1759168571.8665938,1759168571.9540462,175.429105758667,0.40602684020996094,0.07462501525878906,21.724224090576172,21.79884910583496,23.747682571411133,112.34402656555176
1759168572.0456362,1759168572.140109,182.33489990234375,0.4341602325439453,0.06771087646484375,22.019624710083008,22.08733558654785,24.070024490356445,120.72563171386719
1759168572.2280707,1759168572.3187466,162.56237030029297,0.8389949798583984,0.06842613220214844,19.770383834838867,19.838809967041016,21.48270606994629,112.08462715148926
1759168572.3907804,1759168572.4975388,174.93247985839844,0.911712646484375,0.06818771362304688,19.794464111328125,19.862651824951172,22.37534523010254,111.56868934631348
1759168572.5666556,1759168572.676618,177.66976356506348,1.758575439453125,0.06556510925292969,19.771337509155273,19.836902618408203,22.139787673950195,112.03885078430176
1759168572.7444682,1759168572.855371,201.16639137268066,1.6932487487792969,0.06580352783203125,19.793033599853516,19.858837127685547,21.88420295715332,112.030029296875
1759168572.94584,1759168573.0352943,175.48680305480957,0.4019737243652344,0.06842613220214844,21.435260772705078,21.503686904907227,22.674560546875,111.19413375854492
1759168573.123634,1759168573.2261593,216.17484092712402,0.3192424774169922,0.07343292236328125,28.6867618560791,28.760194778442383,29.522180557250977,147.5198268890381
1759168573.3399076,1759168573.4294832,157.1652889251709,0.5381107330322266,0.06747245788574219,20.185470581054688,20.25294303894043,22.521495819091797,110.13650894165039
1759168573.4972165,1759168573.6090407,182.67297744750977,0.26988983154296875,0.06389617919921875,19.721269607543945,19.785165786743164,20.720720291137695,111.12332344055176
1759168573.6885898,1759168573.809396,197.26920127868652,0.32639503479003906,0.06413459777832031,19.775390625,19.83952522277832,20.732879638671875,111.19699478149414
1759168573.8860006,1759168574.009567,190.0801658630371,0.31757354736328125,0.06461143493652344,19.656896591186523,19.721508026123047,20.613670349121094,110.43167114257812
1759168574.0845897,1759168574.1889567,190.0804042816162,1.3332366943359375,0.06532669067382812,19.753217697143555,19.818544387817383,21.56376838684082,110.14938354492188
1759168574.2780843,1759168574.3649623,194.40579414367676,0.23102760314941406,0.06747245788574219,23.262500762939453,23.329973220825195,24.967193603515625,89.31922912597656
1759168574.478032,1759168574.5435543,171.950101852417,0.17380714416503906,0.06914138793945312,23.669719696044922,23.738861083984375,24.225950241088867,67.52729415893555
1759168574.6501288,1759168574.7196653,116.72449111938477,0.5018711090087891,0.06723403930664062,20.11394500732422,20.18117904663086,22.3696231842041,90.59596061706543
1759168574.766997,1759168574.8986366,178.93099784851074,0.3418922424316406,0.06365776062011719,19.70839500427246,19.772052764892578,20.627260208129883,92.01431274414062
1759168574.94959,1759168575.0520873,190.96660614013672,0.24175643920898438,0.06723403930664062,24.585247039794922,24.652481079101562,25.391340255737305,110.95046997070312
1759168575.1407018,1759168575.2286358,136.64865493774414,0.896453857421875,0.06413459777832031,19.694805145263672,19.758939743041992,22.233247756958008,109.12322998046875
1759168575.2774951,1759168575.4079123,176.88584327697754,0.5228519439697266,0.06365776062011719,19.631624221801758,19.695281982421875,21.203994750976562,108.12067985534668
1759168575.4628422,1759168575.5651228,179.56829071044922,0.3154277801513672,0.07009506225585938,19.752025604248047,19.822120666503906,20.752906799316406,108.75749588012695
1759168575.6425657,1759168575.7650764,171.32973670959473,0.28634071350097656,0.06341934204101562,19.739627838134766,19.80304718017578,20.702838897705078,89.13230895996094
1759168575.8190112,1759168575.9436448,193.65692138671875,0.5087852478027344,0.06413459777832031,19.788742065429688,19.852876663208008,21.20184898376465,91.75562858581543
1759168576.0130565,1759168576.120254,195.07551193237305,0.4661083221435547,0.06818771362304688,21.40355110168457,21.471738815307617,22.838354110717773,132.6122283935547
1759168576.2082775,1759168576.298215,177.50000953674316,0.48279762268066406,0.06818771362304688,20.67089080810547,20.739078521728516,22.118091583251953,112.13088035583496
1759168576.3859231,1759168576.4762182,141.71123504638672,0.5609989166259766,0.06461143493652344,19.87147331237793,19.936084747314453,21.38042449951172,90.57807922363281
1759168576.5277817,1759168576.6547244,194.87857818603516,1.5416145324707031,0.06437301635742188,19.94180679321289,20.006179809570312,22.11165428161621,92.05341339111328
1759168576.72276,1759168576.833123,160.30049324035645,1.3346672058105469,0.07414817810058594,19.840717315673828,19.914865493774414,22.23515510559082,90.8820629119873
1759168576.8866339,1759168577.0110254,172.25241661071777,1.6498565673828125,0.0667572021484375,19.843101501464844,19.90985870361328,22.08852767944336,111.7711067199707
1759168577.0639868,1759168577.1914105,199.68390464782715,1.3475418090820312,0.0667572021484375,19.874095916748047,19.940853118896484,21.732330322265625,91.31121635437012
1759168577.2640882,1759168577.3897495,192.9335594177246,1.7199516296386719,0.07390975952148438,19.810199737548828,19.884109497070312,22.066593170166016,111.28020286560059
1759168577.457163,1759168577.5663896,177.89483070373535,1.9180774688720703,0.06508827209472656,19.908666610717773,19.9737548828125,23.68617057800293,132.1117877960205
1759168577.635203,1759168577.74418,162.72473335266113,1.7650127410888672,0.06651878356933594,19.77849006652832,19.845008850097656,22.38750457763672,131.56819343566895
1759168577.80163,1759168577.9237185,189.82887268066406,0.8342266082763672,0.06508827209472656,19.856691360473633,19.92177963256836,21.561384201049805,111.49835586547852
1759168577.9916174,1759168578.1024249,198.67706298828125,0.8246898651123047,0.06389617919921875,19.902944564819336,19.966840744018555,22.25327491760254,112.71142959594727
1759168578.1903954,1759168578.2805562,141.23773574829102,0.7731914520263672,0.06532669067382812,19.70839500427246,19.77372169494629,22.251605987548828,91.37678146362305
1759168578.3317792,1759168578.459824,175.30560493469238,0.3361701965332031,0.064849853515625,19.79517936706543,19.860029220581055,20.642995834350586,92.13972091674805
1759168578.5155892,1759168578.6387768,174.47280883789062,0.24127960205078125,0.06389617919921875,21.14701271057129,21.210908889770508,21.856307983398438,91.64285659790039
1759168578.6901522,1759168578.8142807,193.6938762664795,0.43892860412597656,0.06985664367675781,23.035764694213867,23.105621337890625,24.4143009185791,111.62710189819336
1759168578.8857815,1759168578.9939535,196.0582733154297,0.3116130828857422,0.06961822509765625,21.704912185668945,21.7745304107666,23.712873458862305,112.45536804199219
1759168579.0823915,1759168579.172529,178.09796333312988,0.7686614990234375,0.06890296936035156,21.604061126708984,21.672964096069336,23.242473602294922,112.95938491821289
1759168579.260599,1759168579.350915,157.545804977417,0.682830810546875,0.06937980651855469,21.349668502807617,21.419048309326172,23.834705352783203,92.48018264770508
1759168579.418292,1759168579.5282536,177.2921085357666,0.8962154388427734,0.06628036499023438,19.71602439880371,19.782304763793945,22.46260643005371,92.09775924682617
1759168579.59646,1759168579.708739,182.37662315368652,0.48851966857910156,0.06842613220214844,19.881248474121094,19.949674606323242,21.39568328857422,113.25597763061523
1759168579.7789338,1759168579.8857923,194.56100463867188,0.4343986511230469,0.06890296936035156,21.752595901489258,21.82149887084961,22.918701171875,111.80567741394043
1759168579.973652,1759168580.0637543,158.0374240875244,0.8540153503417969,0.06747245788574219,19.858837127685547,19.92630958557129,22.423505783081055,112.6708984375
1759168580.1318321,1759168580.2430458,163.0532741546631,1.6224384307861328,0.06413459777832031,19.848346710205078,19.9124813079834,22.399187088012695,111.89889907836914
1759168580.2952573,1759168580.3995183,174.85547065734863,0.9596347808837891,0.07343292236328125,22.05824851989746,22.131681442260742,23.869991302490234,111.36698722839355
1759168580.4702582,1759168580.5761535,194.45395469665527,0.553131103515625,0.06604194641113281,22.714853286743164,22.780895233154297,24.827003479003906,112.50877380371094
1759168580.6648576,1759168580.7529235,136.75260543823242,0.9109973907470703,0.06437301635742188,19.77229118347168,19.8366641998291,21.517038345336914,108.27064514160156
1759168580.8017516,1759168580.9310367,200.8802890777588,1.0218620300292969,0.06461143493652344,19.913196563720703,19.977807998657227,22.983551025390625,130.0206184387207
1759168581.0027804,1759168581.112075,196.69389724731445,0.6670951843261719,0.06604194641113281,19.78778839111328,19.853830337524414,22.030115127563477,111.31954193115234
1759168581.199587,1759168581.2889795,162.0464324951172,1.7943382263183594,0.06604194641113281,19.80900764465332,19.875049591064453,22.186994552612305,110.43524742126465
1759168581.3617797,1759168581.4681683,156.16130828857422,0.49114227294921875,0.06461143493652344,20.061969757080078,20.1265811920166,21.495819091796875,111.32025718688965
1759168581.5226028,1759168581.6479065,192.81506538391113,0.7104873657226562,0.06437301635742188,20.982027053833008,21.04640007019043,22.4454402923584,112.47992515563965
1759168581.7175927,1759168581.8260336,176.45263671875,0.29778480529785156,0.06866455078125,21.7435359954834,21.81220054626465,23.81110191345215,113.04903030395508
1759168581.8946443,1759168582.0036814,180.98950386047363,0.6730556488037109,0.06747245788574219,22.68838882446289,22.755861282348633,24.981021881103516,112.13898658752441
1759168582.0757818,1759168582.1819742,194.83327865600586,1.4884471893310547,0.07295608520507812,20.265817642211914,20.338773727416992,23.785829544067383,131.57081604003906
1759168582.2713325,1759168582.3625288,178.558349609375,0.3330707550048828,0.06771087646484375,22.63665199279785,22.704362869262695,23.769855499267578,111.2971305847168
1759168582.450035,1759168582.5395966,157.18626976013184,0.5457401275634766,0.06699562072753906,20.270109176635742,20.33710479736328,22.7813720703125,112.53666877746582
1759168582.6076245,1759168582.718248,177.81591415405273,1.5692710876464844,0.06818771362304688,19.93083953857422,19.999027252197266,22.433042526245117,114.06445503234863
1759168582.7855973,1759168582.8961973,158.25271606445312,1.4629364013671875,0.06413459777832031,19.800186157226562,19.864320755004883,21.83079719543457,90.82770347595215
1759168582.946593,1759168583.0743387,195.7685947418213,0.9288787841796875,0.06961822509765625,21.006107330322266,21.075725555419922,22.867679595947266,112.98060417175293
1759168583.142512,1759168583.2527647,178.0378818511963,0.5171298980712891,0.06794929504394531,20.29561996459961,20.363569259643555,21.68726921081543,114.64333534240723
1759168583.3206954,1759168583.4339025,165.5600070953369,0.5030632019042969,0.06365776062011719,19.90509033203125,19.968748092651367,21.491527557373047,110.4891300201416
1759168583.4935884,1759168583.6119144,170.2594757080078,0.4496574401855469,0.06508827209472656,19.7751522064209,19.840240478515625,21.306753158569336,109.55953598022461
1759168583.6642208,1759168583.7702904,191.99419021606445,0.6508827209472656,0.06461143493652344,19.83809471130371,19.902706146240234,21.220922470092773,110.16321182250977
1759168583.856361,1759168583.9453049,160.27331352233887,1.9538402557373047,0.06461143493652344,19.8366641998291,19.901275634765625,23.672819137573242,112.31470108032227
1759168584.0167818,1759168584.1254668,177.89959907531738,1.4324188232421875,0.06389617919921875,19.751310348510742,19.81520652770996,21.7587947845459,112.51711845397949
1759168584.1995978,1759168584.307226,192.2740936279297,1.3878345489501953,0.06556510925292969,19.763946533203125,19.829511642456055,21.65675163269043,110.03923416137695
1759168584.3920138,1759168584.4617841,178.1322956085205,0.16546249389648438,0.06723403930664062,24.644851684570312,24.712085723876953,25.180578231811523,67.7330493927002
1759168584.5726504,1759168584.6420114,175.60076713562012,0.23317337036132812,0.06914138793945312,23.246288299560547,23.3154296875,23.96082878112793,68.43709945678711
1759168584.7484,1759168584.8199806,117.42067337036133,0.5133152008056641,0.07200241088867188,20.203351974487305,20.275354385375977,22.507905960083008,72.33977317810059
1759168584.8659658,1759168584.9968915,197.8461742401123,1.4538764953613281,0.06580352783203125,20.227432250976562,20.293235778808594,23.159027099609375,93.34611892700195
1759168585.0645843,1759168585.1741374,178.3158779144287,0.2734661102294922,0.06604194641113281,22.714853286743164,22.780895233154297,24.73735809326172,111.6492748260498
1759168585.243041,1759168585.3512821,179.59022521972656,0.8006095886230469,0.06604194641113281,19.8366641998291,19.902706146240234,22.253990173339844,130.74517250061035
1759168585.423071,1759168585.5319736,196.56729698181152,0.4363059997558594,0.06771087646484375,20.308971405029297,20.37668228149414,22.71747589111328,130.7084560394287
1759168585.619781,1759168585.710484,178.45797538757324,1.5609264373779297,0.064849853515625,20.226240158081055,20.29109001159668,23.34761619567871,110.5799674987793
1759168585.801684,1759168585.8896837,156.9969654083252,0.6048679351806641,0.06866455078125,21.854639053344727,21.923303604125977,23.3004093170166,90.79217910766602
1759168585.9590695,1759168586.0668328,179.76808547973633,0.42891502380371094,0.06747245788574219,21.76976203918457,21.837234497070312,23.0557918548584,131.98232650756836
1759168586.139024,1759168586.2457972,178.88855934143066,0.8802413940429688,0.06818771362304688,21.365880966186523,21.43406867980957,23.288488388061523,132.2615146636963
1759168586.3182905,1759168586.4242914,194.0901279449463,0.4668235778808594,0.06771087646484375,21.704673767089844,21.772384643554688,23.984432220458984,131.58321380615234
1759168586.5160532,1759168586.6027112,174.332857131958,0.14495849609375,0.06842613220214844,23.968219757080078,24.036645889282227,25.604724884033203,110.81337928771973
1759168586.6905391,1759168586.778373,138.0937099456787,0.8950233459472656,0.06437301635742188,19.828319549560547,19.89269256591797,22.967100143432617,109.94195938110352
1759168586.832631,1759168586.9582696,176.24831199645996,0.4773139953613281,0.06318092346191406,19.79684829711914,19.860029220581055,21.344661712646484,109.34233665466309
1759168587.0135884,1759168587.1172912,190.03939628601074,1.3554096221923828,0.06794929504394531,20.696163177490234,20.76411247253418,22.593975067138672,111.39106750488281
1759168587.2102485,1759168587.2950687,191.6806697845459,0.26035308837890625,0.06771087646484375,22.658348083496094,22.726058959960938,24.431467056274414,89.3714427947998
1759168587.4076362,1759168587.473354,172.5153923034668,0.5650520324707031,0.06985664367675781,23.427248001098633,23.49710464477539,24.381399154663086,67.8093433380127
1759168587.5802977,1759168587.649723,116.6529655456543,0.8451938629150391,0.06699562072753906,19.69623565673828,19.76323127746582,21.44932746887207,89.66612815856934
1759168587.6970935,1759168587.8273942,160.78758239746094,0.5061626434326172,0.06508827209472656,19.7446346282959,19.809722900390625,21.216154098510742,90.41309356689453
1759168587.8634331,1759168588.0074947,197.50046730041504,0.3414154052734375,0.06389617919921875,19.72031593322754,19.784212112426758,20.580291748046875,92.30899810791016
1759168588.0610783,1759168588.1861553,190.8586025238037,1.415252685546875,0.06699562072753906,19.9429988861084,20.009994506835938,21.87657356262207,91.37201309204102
1759168588.2520843,1759168588.361203,176.74994468688965,1.4848709106445312,0.06580352783203125,20.19810676574707,20.2639102935791,23.42700958251953,131.64758682250977
1759168588.436077,1759168588.5439405,186.7668628692627,0.1971721649169922,0.06461143493652344,19.71912384033203,19.783735275268555,20.401477813720703,89.18356895446777
1759168588.6229885,1759168588.7627409,192.8565502166748,0.5044937133789062,0.06365776062011719,19.729137420654297,19.792795181274414,21.297931671142578,108.27779769897461
1759168588.8196294,1759168588.9200747,283.7228775024414,0.3142356872558594,0.06318092346191406,19.73867416381836,19.801855087280273,20.722627639770508,215.9571647644043
1759168589.1110451,1759168589.2315245,187.95323371887207,0.3247261047363281,0.06580352783203125,19.60587501525879,19.67167854309082,20.566225051879883,112.396240234375
1759168589.3066032,1759168589.4112842,170.29571533203125,1.4107227325439453,0.064849853515625,19.62113380432129,19.685983657836914,21.498918533325195,109.50112342834473
1759168589.4810944,1759168589.5861113,193.51434707641602,0.23436546325683594,0.06818771362304688,24.829864501953125,24.898052215576172,26.556968688964844,110.39853096008301
1759168589.6747527,1759168589.7629724,156.60929679870605,0.8540153503417969,0.06461143493652344,19.669771194458008,19.73438262939453,21.497726440429688,108.38079452514648
1759168589.831512,1759168589.940115,157.49597549438477,0.9124279022216797,0.06437301635742188,19.6835994720459,19.74797248840332,21.853208541870117,109.33661460876465
1759168589.9891543,1759168590.12037,220.5948829650879,1.5645027160644531,0.06508827209472656,20.04384994506836,20.108938217163086,22.579431533813477,130.96213340759277
1759168590.2098913,1759168590.3001778,176.98168754577637,0.7357597351074219,0.064849853515625,19.639015197753906,19.70386505126953,21.958351135253906,109.8024845123291
1759168590.3877327,1759168590.4783685,177.43802070617676,0.4169940948486328,0.06413459777832031,20.89977264404297,20.96390724182129,21.895647048950195,110.45980453491211
1759168590.5653164,1759168590.6563177,179.40807342529297,0.4143714904785156,0.06365776062011719,20.934581756591797,20.998239517211914,21.98505401611328,111.3286018371582
1759168590.7448673,1759168590.8351378,157.77969360351562,0.7390975952148438,0.06365776062011719,19.602298736572266,19.665956497192383,21.97718620300293,112.21981048583984
1759168590.9027958,1759168591.0134182,162.0805263519287,0.7410049438476562,0.06532669067382812,20.98679542541504,21.052122116088867,22.700786590576172,111.23442649841309
1759168591.0652387,1759168591.1700494,172.10006713867188,0.39076805114746094,0.07414817810058594,22.66073226928711,22.734880447387695,23.90432357788086,111.24825477600098
1759168591.23744,1759168591.3478458,177.9329776763916,0.5631446838378906,0.06794929504394531,20.255565643310547,20.323514938354492,22.754669189453125,112.76054382324219
1759168591.4155324,1759168591.5254436,161.39674186706543,0.6601810455322266,0.064849853515625,19.736051559448242,19.800901412963867,20.936250686645508,111.41252517700195
1759168591.5772989,1759168591.6825242,195.51706314086914,0.40984153747558594,0.09751319885253906,22.89128303527832,22.98879623413086,24.14393424987793,114.22038078308105
1759168591.77296,1759168591.8613915,176.94783210754395,1.5120506286621094,0.06937980651855469,20.235061645507812,20.304441452026367,23.68617057800293,131.1049461364746
1759168591.9507165,1759168592.0394673,176.96881294250488,0.6914138793945312,0.06771087646484375,22.583484649658203,22.651195526123047,24.660825729370117,110.34798622131348
1759168592.1280577,1759168592.216793,158.57553482055664,0.69427490234375,0.07319450378417969,21.562576293945312,21.635770797729492,24.164438247680664,111.57751083374023
1759168592.2867827,1759168592.3948445,176.85246467590332,1.775503158569336,0.064849853515625,19.837379455566406,19.90222930908203,22.198915481567383,109.73668098449707
1759168592.4676318,1759168592.573477,152.73690223693848,0.5209445953369141,0.06437301635742188,19.904613494873047,19.96898651123047,21.31962776184082,112.45846748352051
1759168592.6276245,1759168592.7522213,192.16299057006836,0.9264945983886719,0.064849853515625,19.792556762695312,19.857406616210938,21.572351455688477,111.08851432800293
1759168592.8216352,1759168592.9302251,176.61070823669434,0.9167194366455078,0.06413459777832031,19.72341537475586,19.78754997253418,21.64745330810547,110.49461364746094
1759168592.9983919,1759168593.1093526,198.23861122131348,0.40411949157714844,0.06413459777832031,20.965099334716797,21.029233932495117,21.954774856567383,109.90428924560547
1759168593.196771,1759168593.2873344,177.92510986328125,0.4279613494873047,0.06318092346191406,21.11077308654785,21.173954010009766,22.13287353515625,111.11688613891602
1759168593.3748417,1759168593.465325,157.81283378601074,0.44989585876464844,0.06437301635742188,19.92940902709961,19.99378204345703,21.166324615478516,111.7398738861084
1759168593.5327983,1759168593.6433322,197.6931095123291,0.8423328399658203,0.06508827209472656,19.75083351135254,19.815921783447266,22.323131561279297,111.92917823791504
1759168593.7308962,1759168593.8213155,177.54411697387695,0.4630088806152344,0.06842613220214844,21.14725112915039,21.21567726135254,22.46713638305664,112.32447624206543
1759168593.9086,1759168593.999049,139.03450965881348,0.7789134979248047,0.06532669067382812,19.789457321166992,19.85478401184082,22.34196662902832,91.28069877624512
1759168594.047783,1759168594.1780753,159.10696983337402,0.3123283386230469,0.06461143493652344,19.57392692565918,19.638538360595703,20.483016967773438,70.48392295837402
1759168594.2115877,1759168594.35567,170.11094093322754,0.3199577331542969,0.06413459777832031,19.644975662231445,19.709110260009766,20.461082458496094,70.11127471923828
1759168594.3905904,1759168594.5334363,188.08388710021973,0.34236907958984375,0.06365776062011719,19.70815658569336,19.771814346313477,20.601749420166016,70.68824768066406
1759168594.5816312,1759168594.6871047,176.29599571228027,0.3056526184082031,0.06771087646484375,23.746490478515625,23.81420135498047,24.835824966430664,110.77165603637695
1759168594.758027,1759168594.8645558,178.86090278625488,1.73187255859375,0.06723403930664062,19.848346710205078,19.91558074951172,23.418664932250977,131.78491592407227
1759168594.937034,1759168595.0441682,194.64468955993652,0.3600120544433594,0.06890296936035156,21.480321884155273,21.549224853515625,22.707223892211914,111.5410327911377
1759168595.1325443,1759168595.2229655,177.43515968322754,0.3032684326171875,0.06723403930664062,22.670984268188477,22.738218307495117,23.7886905670166,110.91184616088867
1759168595.3102767,1759168595.4003053,178.1005859375,1.5192031860351562,0.06914138793945312,20.940303802490234,21.009445190429688,23.222923278808594,112.61606216430664
1759168595.4885361,1759168595.5772667,136.0030174255371,0.55694580078125,0.06794929504394531,20.137786865234375,20.20573616027832,22.448062896728516,90.47603607177734
1759168595.6246822,1759168595.7562337,178.39503288269043,0.33211708068847656,0.06508827209472656,19.67620849609375,19.741296768188477,20.64061164855957,92.2996997833252
1759168595.8115888,1759168595.937171,171.3261604309082,0.2999305725097656,0.07224082946777344,20.835161209106445,20.90740203857422,21.755695343017578,91.1250114440918
1759168595.9869854,1759168596.0908382,191.89023971557617,0.4665851593017578,0.06914138793945312,21.791934967041016,21.86107635498047,23.067951202392578,131.15262985229492
1759168596.1789749,1759168596.2688878,176.78475379943848,0.48232078552246094,0.06842613220214844,20.15852928161621,20.22695541381836,21.41880989074707,112.24222183227539
1759168596.355906,1759168596.4457622,139.11890983581543,0.4665851593017578,0.06389617919921875,19.855976104736328,19.919872283935547,21.3773250579834,107.8176498413086
1759168596.5025926,1759168596.6030788,177.80733108520508,0.2956390380859375,0.06437301635742188,19.59228515625,19.656658172607422,20.515918731689453,108.51097106933594
1759168596.6804965,1759168596.803076,190.81640243530273,0.3070831298828125,0.06389617919921875,19.655942916870117,19.719839096069336,20.60246467590332,110.34178733825684
1759168596.875879,1759168596.9569416,169.6000099182129,0.3933906555175781,0.06914138793945312,23.710012435913086,23.77915382385254,25.597333908081055,89.26272392272949
1759168597.048633,1759168597.135092,174.35002326965332,0.14209747314453125,0.0705718994140625,25.211811065673828,25.28238296508789,25.713443756103516,88.70697021484375
1759168597.2230833,1759168597.311465,156.93020820617676,1.0454654693603516,0.06723403930664062,21.06451988220215,21.13175392150879,23.736000061035156,111.20390892028809
1759168597.3836331,1759168597.4894943,174.12400245666504,0.8275508880615234,0.06508827209472656,20.793914794921875,20.8590030670166,22.165775299072266,109.54737663269043
1759168597.5616312,1759168597.6685338,178.2231330871582,0.41675567626953125,0.06389617919921875,20.509958267211914,20.573854446411133,21.847963333129883,110.9764575958252
1759168597.7399507,1759168597.846926,181.11205101013184,0.49114227294921875,0.06556510925292969,19.716262817382812,19.781827926635742,21.219253540039062,129.55379486083984
1759168597.9212162,1759168598.024769,190.94109535217285,0.8232593536376953,0.06532669067382812,19.695758819580078,19.761085510253906,20.98393440246582,129.35853004455566
1759168598.1123028,1759168598.2027473,181.33211135864258,0.8213520050048828,0.06532669067382812,19.799232482910156,19.864559173583984,22.372722625732422,110.2302074432373
1759168598.293857,1759168598.3804903,175.06861686706543,0.32830238342285156,0.06818771362304688,23.817062377929688,23.885250091552734,25.63953399658203,110.3811264038086
1759168598.4740229,1759168598.5574906,171.00906372070312,0.11157989501953125,0.06723403930664062,25.33578872680664,25.40302276611328,25.801420211791992,88.88006210327148
1759168598.6451874,1759168598.7328095,136.21139526367188,0.9214878082275391,0.064849853515625,19.776105880737305,19.84095573425293,22.34935760498047,108.62207412719727
1759168598.7815557,1759168598.9115255,177.2899627685547,0.46753883361816406,0.06532669067382812,19.829511642456055,19.894838333129883,21.360158920288086,109.31611061096191
1759168598.967658,1759168599.0909364,193.44592094421387,0.32782554626464844,0.06389617919921875,19.699811935424805,19.763708114624023,20.732641220092773,90.68536758422852
1759168599.164636,1759168599.2688112,191.65873527526855,0.4372596740722656,0.06818771362304688,21.63100242614746,21.699190139770508,23.06818962097168,111.9534969329834
1759168599.356443,1759168599.4464312,158.0064296722412,0.6148815155029297,0.06651878356933594,20.194292068481445,20.26081085205078,22.88222312927246,111.43016815185547
1759168599.5176346,1759168599.6250656,178.9991855621338,1.514434814453125,0.06556510925292969,20.10822296142578,20.17378807067871,22.222042083740234,111.40632629394531
1759168599.6967812,1759168599.8032749,174.05152320861816,1.432180404663086,0.06580352783203125,20.138263702392578,20.20406723022461,23.189783096313477,110.98885536193848
1759168599.8746662,1759168599.9814954,177.23679542541504,0.39839744567871094,0.06747245788574219,22.44877815246582,22.516250610351562,23.69070053100586,110.87775230407715
1759168600.0556428,1759168600.158283,191.89953804016113,1.451253890991211,0.06842613220214844,21.560192108154297,21.628618240356445,24.563312530517578,131.95323944091797
1759168600.2476892,1759168600.3363364,156.93426132202148,0.7021427154541016,0.06842613220214844,21.032333374023438,21.100759506225586,23.36263656616211,111.00625991821289
1759168600.404769,1759168600.5137792,177.54054069519043,1.7948150634765625,0.06556510925292969,19.79684829711914,19.86241340637207,22.15266227722168,109.7872257232666
1759168600.5845923,1759168600.6922617,163.2523536682129,0.4811286926269531,0.06389617919921875,19.79207992553711,19.855976104736328,21.33965492248535,109.21692848205566
1759168600.7482176,1759168600.8502195,187.12544441223145,1.4238357543945312,0.06532669067382812,19.7446346282959,19.809961318969727,21.651029586791992,109.42888259887695
1759168600.935488,1759168601.0239434,162.14513778686523,0.9717941284179688,0.06461143493652344,21.255970001220703,21.320581436157227,23.86760711669922,111.23204231262207
1759168601.0977798,1759168601.203758,158.17689895629883,0.5590915679931641,0.06461143493652344,19.687175750732422,19.751787185668945,21.225452423095703,110.02135276794434
1759168601.2560983,1759168601.3621378,193.12167167663574,0.42176246643066406,0.06937980651855469,20.21932601928711,20.288705825805664,22.443056106567383,111.62471771240234
1759168601.4575899,1759168601.5630565,190.90723991394043,1.4042854309082031,0.07200241088867188,19.794225692749023,19.866228103637695,21.69346809387207,109.53116416931152
1759168601.6489136,1759168601.7393126,181.72144889831543,1.6520023345947266,0.06651878356933594,20.05147933959961,20.117998123168945,23.10943603515625,110.07261276245117
1759168601.8308406,1759168601.917518,173.84696006774902,0.20885467529296875,0.06794929504394531,23.39339256286621,23.461341857910156,25.12836456298828,89.61892127990723
1759168602.0065925,1759168602.0956838,184.89575386047363,0.4286766052246094,0.0667572021484375,29.481887817382812,29.54864501953125,30.473709106445312,119.82154846191406
1759168602.1916435,1759168602.2819643,160.98833084106445,0.9076595306396484,0.06532669067382812,19.707202911376953,19.77252960205078,22.229433059692383,111.30809783935547
1759168602.3527782,1759168602.4604905,195.55306434631348,1.7042160034179688,0.06580352783203125,20.313024520874023,20.378828048706055,22.695302963256836,112.55860328674316
1759168602.5484767,1759168602.6375437,157.88650512695312,1.651763916015625,0.06532669067382812,20.328044891357422,20.39337158203125,23.79155158996582,112.23912239074707
1759168602.70652,1759168602.8171794,177.42490768432617,1.3530254364013672,0.06461143493652344,19.89150047302246,19.956111907958984,21.888017654418945,112.5643253326416
1759168602.88479,1759168602.9963229,180.7539463043213,0.41961669921875,0.06914138793945312,21.534442901611328,21.60358428955078,23.03004264831543,112.91098594665527
1759168603.0656898,1759168603.1829524,203.94444465637207,0.5238056182861328,0.07390975952148438,23.01812171936035,23.092031478881836,23.909568786621094,148.97990226745605
1759168603.2697372,1759168603.395085,193.894624710083,1.7371177673339844,0.06914138793945312,19.924163818359375,19.993305206298828,23.369312286376953,119.57740783691406
1759168603.4676316,1759168603.574121,178.00331115722656,0.4284381866455078,0.06556510925292969,20.926475524902344,20.992040634155273,21.890878677368164,91.24994277954102
1759168603.6458178,1759168603.7516735,154.11615371704102,1.3456344604492188,0.06890296936035156,20.017147064208984,20.086050033569336,22.459983825683594,90.81053733825684
