Timestamp,ArrivalTime,TotalTime(ms),WaitTime(ms),DecodeTime(ms),InferTime(ms),ServerComputeTime(ms),TotalServer(ms),Total
1758643830.05881,1758643830.0901217,2141.5908336639404,0.04220008850097656,0.2682209014892578,2106.476068496704,2106.7442893981934,2106.900453567505,2110.7747554779053
1758643832.2006938,1758643832.2040117,32.562255859375,0.037670135498046875,0.15234947204589844,27.643203735351562,27.79555320739746,27.878284454345703,29.079437255859375
1758643832.233483,1758643832.2353935,19.088029861450195,0.023126602172851562,0.09822845458984375,16.14999771118164,16.248226165771484,16.30091667175293,16.916751861572266
1758643832.2527199,1758643832.254054,21.982908248901367,0.01430511474609375,0.07152557373046875,19.634485244750977,19.706010818481445,19.748926162719727,20.18904685974121
1758643832.2748535,1758643832.2761803,24.28746223449707,0.015974044799804688,0.0705718994140625,21.92521095275879,21.99578285217285,22.045135498046875,22.533655166625977
1758643832.299283,1758643832.3006124,24.36375617980957,0.016689300537109375,0.07081031799316406,22.031307220458984,22.10211753845215,22.14789390563965,22.623538970947266
1758643832.3238153,1758643832.3251507,24.256229400634766,0.016927719116210938,0.06961822509765625,21.912574768066406,21.982192993164062,22.028207778930664,22.520780563354492
1758643832.3482149,1758643832.3495076,24.323225021362305,0.016450881958007812,0.07867813110351562,22.026538848876953,22.10521697998047,22.150516510009766,22.609949111938477
1758643832.3726976,1758643832.374036,24.142742156982422,0.015735626220703125,0.0705718994140625,21.8048095703125,21.875381469726562,21.920204162597656,22.42445945739746
1758643832.3969872,1758643832.3983464,24.17135238647461,0.016689300537109375,0.07200241088867188,21.795988082885742,21.867990493774414,21.913766860961914,22.382497787475586
1758643832.4213023,1758643832.4226618,21.713733673095703,0.01621246337890625,0.07033348083496094,19.353151321411133,19.423484802246094,19.469022750854492,19.973278045654297
1758643832.4431598,1758643832.4444768,24.254560470581055,0.01621246337890625,0.07653236389160156,21.930456161499023,22.006988525390625,22.052288055419922,22.531986236572266
1758643832.4675646,1758643832.4688537,24.168729782104492,0.01621246337890625,0.07104873657226562,21.877288818359375,21.94833755493164,21.99387550354004,22.4606990814209
1758643832.491876,1758643832.4931743,24.2919921875,0.016450881958007812,0.072479248046875,21.979570388793945,22.05204963684082,22.101879119873047,22.579193115234375
1758643832.5163097,1758643832.517628,24.39141273498535,0.015974044799804688,0.06961822509765625,22.06134796142578,22.130966186523438,22.176504135131836,22.620201110839844
1758643832.5408459,1758643832.5421646,24.107933044433594,0.015974044799804688,0.06914138793945312,21.78645133972168,21.855592727661133,21.901369094848633,22.39203453063965
1758643832.5650961,1758643832.566396,24.31201934814453,0.015974044799804688,0.07104873657226562,22.022485733032227,22.093534469604492,22.139310836791992,22.60732650756836
1758643832.5895557,1758643832.590848,22.589445114135742,0.016689300537109375,0.06985664367675781,20.38860321044922,20.458459854125977,20.503997802734375,20.969867706298828
1758643832.6123893,1758643832.613701,18.942832946777344,0.01621246337890625,0.06961822509765625,16.6015625,16.671180725097656,16.719818115234375,17.210721969604492
1758643832.6314762,1758643832.6327906,24.214506149291992,0.015974044799804688,0.0705718994140625,21.981477737426758,22.05204963684082,22.098302841186523,22.56941795349121
1758643832.6557927,1758643832.6571672,24.043560028076172,0.014543533325195312,0.07152557373046875,21.671295166015625,21.742820739746094,21.78668975830078,22.237539291381836
1758643832.6799815,1758643832.6812866,24.46436882019043,0.015020370483398438,0.07104873657226562,22.16196060180664,22.233009338378906,22.282838821411133,22.724390029907227
1758643832.704601,1758643832.7059605,23.829936981201172,0.014543533325195312,0.0705718994140625,21.544456481933594,21.615028381347656,21.659374237060547,22.09639549255371
1758643832.7286482,1758643832.7299523,24.040699005126953,0.015497207641601562,0.06985664367675781,21.732330322265625,21.802186965942383,21.84772491455078,22.324085235595703
1758643832.7528322,1758643832.7541282,23.085355758666992,0.01621246337890625,0.07176399230957031,20.781755447387695,20.853519439697266,20.899057388305664,21.36540412902832
1758643832.7760625,1758643832.7773736,24.29819107055664,0.01621246337890625,0.07128715515136719,21.98624610900879,22.057533264160156,22.103309631347656,22.565841674804688
1758643832.8005042,1758643832.8018227,24.26457405090332,0.017642974853515625,0.06937980651855469,21.98505401611328,22.054433822631836,22.10092544555664,22.57084846496582
1758643832.8249567,1758643832.8262715,24.30438995361328,0.015974044799804688,0.07033348083496094,21.971702575683594,22.042036056518555,22.091150283813477,22.5675106048584
1758643832.849402,1758643832.8507366,24.149656295776367,0.016927719116210938,0.07200241088867188,21.813154220581055,21.885156631469727,21.931171417236328,22.433757781982422
1758643832.8736982,1758643832.8749988,24.327516555786133,0.015735626220703125,0.07104873657226562,22.028207778930664,22.09925651550293,22.14360237121582,22.609949111938477
1758643832.8981729,1758643832.899482,23.87857437133789,0.016450881958007812,0.07724761962890625,21.537065505981445,21.61431312561035,21.66008949279785,22.120952606201172
1758643832.9221938,1758643832.9234967,24.57594871520996,0.016689300537109375,0.07748603820800781,22.269487380981445,22.346973419189453,22.39251136779785,22.860050201416016
1758643832.9469132,1758643832.9482756,24.257898330688477,0.015735626220703125,0.0705718994140625,21.880626678466797,21.95119857788086,21.99578285217285,22.487163543701172
1758643832.9713166,1758643832.9726412,24.172306060791016,0.016927719116210938,0.0705718994140625,21.854877471923828,21.92544937133789,21.971702575683594,22.43804931640625
1758643832.9956517,1758643832.9969664,24.191856384277344,0.0171661376953125,0.07009506225585938,21.87180519104004,21.9419002532959,21.987199783325195,22.449731826782227
1758643833.019988,1758643833.0212872,24.271011352539062,0.016450881958007812,0.06961822509765625,21.967411041259766,22.037029266357422,22.083044052124023,22.548198699951172
1758643833.0444026,1758643833.0457323,24.259090423583984,0.014781951904296875,0.07009506225585938,21.911144256591797,21.981239318847656,22.028207778930664,22.47762680053711
1758643833.0688052,1758643833.0701022,24.283409118652344,0.016927719116210938,0.06985664367675781,21.985530853271484,22.055387496948242,22.10211753845215,22.558927536010742
1758643833.0932314,1758643833.0945373,19.39249038696289,0.0209808349609375,0.07081031799316406,17.088651657104492,17.159461975097656,17.210006713867188,17.66681671142578
1758643833.1127684,1758643833.1140826,24.0781307220459,0.014781951904296875,0.07033348083496094,21.853923797607422,21.924257278442383,21.968841552734375,22.428035736083984
1758643833.137089,1758643833.1384006,24.398326873779297,0.0171661376953125,0.07033348083496094,22.090435028076172,22.160768508911133,22.207260131835938,22.675275802612305
1758643833.1616144,1758643833.162964,23.726701736450195,0.0171661376953125,0.07390975952148438,21.448612213134766,21.52252197265625,21.572589874267578,22.060632705688477
1758643833.1855972,1758643833.1868994,24.19447898864746,0.017404556274414062,0.07152557373046875,21.867752075195312,21.93927764892578,21.985292434692383,22.47476577758789
1758643833.2099373,1758643833.211244,23.938655853271484,0.015497207641601562,0.07152557373046875,21.631240844726562,21.70276641845703,21.747589111328125,22.21393585205078
1758643833.2340174,1758643833.2353165,25.27308464050293,0.01430511474609375,0.07104873657226562,23.015737533569336,23.0867862701416,23.13089370727539,23.564577102661133
1758643833.2594771,1758643833.260784,24.459123611450195,0.015735626220703125,0.07081031799316406,22.224903106689453,22.295713424682617,22.341251373291016,22.81022071838379
1758643833.284179,1758643833.285493,24.18804168701172,0.0171661376953125,0.07772445678710938,21.871566772460938,21.949291229248047,21.996021270751953,22.45950698852539
1758643833.3085124,1758643833.3098717,24.414539337158203,0.016689300537109375,0.07128715515136719,22.060155868530273,22.13144302368164,22.176742553710938,22.68385887145996
1758643833.3330708,1758643833.334379,24.30129051208496,0.0171661376953125,0.06961822509765625,21.98934555053711,22.058963775634766,22.10545539855957,22.57370948791504
1758643833.3575137,1758643833.3588357,24.27840232849121,0.014781951904296875,0.07033348083496094,21.96049690246582,22.03083038330078,22.075176239013672,22.51291275024414
1758643833.3819368,1758643833.3832412,21.665573120117188,0.016450881958007812,0.07009506225585938,19.349336624145508,19.419431686401367,19.46854591369629,19.942045211791992
1758643833.4037433,1758643833.4050822,24.07073974609375,0.015497207641601562,0.0705718994140625,21.821260452270508,21.89183235168457,21.936655044555664,22.449016571044922
1758643833.4280174,1758643833.4293082,24.176359176635742,0.01621246337890625,0.06985664367675781,21.88420295715332,21.954059600830078,21.999359130859375,22.45783805847168
1758643833.4523385,1758643833.453643,24.31035041809082,0.017404556274414062,0.07033348083496094,21.99721336364746,22.067546844482422,22.114038467407227,22.583484649658203
1758643833.476789,1758643833.4781075,24.228334426879883,0.015735626220703125,0.06914138793945312,21.91781997680664,21.986961364746094,22.031545639038086,22.525548934936523
1758643833.5011625,1758643833.5024703,24.228572845458984,0.015735626220703125,0.07915496826171875,21.87204360961914,21.95119857788086,21.999597549438477,22.50814437866211
1758643833.5255365,1758643833.5268593,24.17778968811035,0.016689300537109375,0.06985664367675781,21.950721740722656,22.020578384399414,22.066831588745117,22.534847259521484
1758643833.549959,1758643833.5512536,24.310588836669922,0.015974044799804688,0.07009506225585938,22.012710571289062,22.082805633544922,22.128582000732422,22.586584091186523
1758643833.5744116,1758643833.575726,19.087791442871094,0.014781951904296875,0.07009506225585938,16.7844295501709,16.854524612426758,16.89887046813965,17.334938049316406
1758643833.5936627,1758643833.594951,24.09219741821289,0.01621246337890625,0.07081031799316406,21.80337905883789,21.874189376831055,21.91948890686035,22.382259368896484
1758643833.6178966,1758643833.6191797,24.196147918701172,0.014781951904296875,0.07033348083496094,21.898746490478516,21.969079971313477,22.016286849975586,22.486209869384766
1758643833.6421967,1758643833.643599,24.250030517578125,0.016450881958007812,0.07152557373046875,21.846532821655273,21.918058395385742,21.968364715576172,22.477149963378906
1758643833.6665978,1758643833.6678934,23.787736892700195,0.01621246337890625,0.07152557373046875,21.49224281311035,21.56376838684082,21.60954475402832,22.08733558654785
1758643833.6905284,1758643833.6918259,24.108409881591797,0.016927719116210938,0.07033348083496094,21.801471710205078,21.87180519104004,21.91758155822754,22.379159927368164
1758643833.714781,1758643833.7160754,25.239944458007812,0.016450881958007812,0.06961822509765625,23.04840087890625,23.118019104003906,23.164033889770508,23.627758026123047
1758643833.740266,1758643833.7416024,24.213075637817383,0.015497207641601562,0.07224082946777344,21.88277244567871,21.955013275146484,22.00031280517578,22.468090057373047
1758643833.7646444,1758643833.7659473,24.326086044311523,0.015735626220703125,0.07033348083496094,22.04442024230957,22.11475372314453,22.159099578857422,22.620201110839844
1758643833.7891562,1758643833.790451,24.34372901916504,0.01621246337890625,0.072479248046875,22.050142288208008,22.122621536254883,22.168636322021484,22.63164520263672
1758643833.813647,1758643833.8149807,24.343252182006836,0.016450881958007812,0.07152557373046875,22.012948989868164,22.084474563598633,22.130250930786133,22.632122039794922
1758643833.8381317,1758643833.8394163,24.251937866210938,0.016450881958007812,0.07009506225585938,21.957874298095703,22.027969360351562,22.077560424804688,22.55535125732422
1758643833.862527,1758643833.863843,21.863937377929688,0.014543533325195312,0.07128715515136719,19.54793930053711,19.619226455688477,19.663333892822266,20.11585235595703
1758643833.8845336,1758643833.885839,24.147748947143555,0.016689300537109375,0.07009506225585938,21.820545196533203,21.890640258789062,21.936655044555664,22.404909133911133
1758643833.9088233,1758643833.9101083,24.170637130737305,0.016689300537109375,0.06937980651855469,21.912097930908203,21.981477737426758,22.027254104614258,22.487878799438477
1758643833.9331815,1758643833.9344838,24.167537689208984,0.015974044799804688,0.07843971252441406,21.86131477355957,21.939754486083984,21.985769271850586,22.45950698852539
1758643833.9574895,1758643833.9588192,24.29485321044922,0.016450881958007812,0.07128715515136719,21.929264068603516,22.000551223754883,22.049665451049805,22.560596466064453
1758643833.9819262,1758643833.9832332,25.07328987121582,0.016927719116210938,0.07176399230957031,22.585391998291016,22.657155990600586,22.722959518432617,23.260831832885742
1758643834.0071418,1758643834.0085368,23.481130599975586,0.022649765014648438,0.09369850158691406,21.0573673248291,21.151065826416016,21.20232582092285,21.72994613647461
1758643834.0307674,1758643834.0320845,24.229764938354492,0.014781951904296875,0.07748603820800781,21.889925003051758,21.967411041259766,22.011518478393555,22.44710922241211
1758643834.055142,1758643834.0564473,19.00792121887207,0.016450881958007812,0.07033348083496094,16.692161560058594,16.762495040893555,16.808748245239258,17.268657684326172
1758643834.0742915,1758643834.075577,24.172544479370117,0.0152587890625,0.07009506225585938,21.869421005249023,21.939516067504883,21.993398666381836,22.478342056274414
1758643834.0986154,1758643834.0999126,24.067163467407227,0.01621246337890625,0.07033348083496094,21.864891052246094,21.935224533081055,21.98052406311035,22.446155548095703
1758643834.1229265,1758643834.1242082,24.192333221435547,0.016927719116210938,0.06985664367675781,22.0029354095459,22.072792053222656,22.118806838989258,22.577524185180664
1758643834.1472218,1758643834.148595,24.23262596130371,0.014781951904296875,0.07104873657226562,21.886825561523438,21.957874298095703,22.00150489807129,22.458791732788086
1758643834.1716225,1758643834.172964,23.957490921020508,0.016927719116210938,0.07176399230957031,21.601200103759766,21.672964096069336,21.719932556152344,22.220611572265625
1758643834.195722,1758643834.1970363,25.472164154052734,0.015974044799804688,0.06961822509765625,23.127079010009766,23.196697235107422,23.24533462524414,23.72455596923828
1758643834.2213383,1758643834.2226527,24.227142333984375,0.01621246337890625,0.07152557373046875,21.908044815063477,21.979570388793945,22.025108337402344,22.500276565551758
1758643834.245708,1758643834.2470074,24.2922306060791,0.01621246337890625,0.07033348083496094,22.090911865234375,22.161245346069336,22.20630645751953,22.668838500976562
1758643834.2702453,1758643834.2715526,24.347782135009766,0.0171661376953125,0.07128715515136719,22.019386291503906,22.090673446655273,22.144794464111328,22.602081298828125
1758643834.2947373,1758643834.296035,24.416208267211914,0.015974044799804688,0.07081031799316406,22.12071418762207,22.191524505615234,22.236347198486328,22.69458770751953
1758643834.3192987,1758643834.3206358,24.364709854125977,0.0152587890625,0.07104873657226562,22.026538848876953,22.09758758544922,22.14217185974121,22.57847785949707
1758643834.3438044,1758643834.345095,21.7592716217041,0.016927719116210938,0.07128715515136719,19.47021484375,19.541501998901367,19.58775520324707,20.051002502441406
1758643834.3657053,1758643834.3669925,24.074792861938477,0.015974044799804688,0.06937980651855469,21.883249282836914,21.95262908935547,21.998167037963867,22.4606990814209
1758643834.3900213,1758643834.3913264,24.27196502685547,0.015974044799804688,0.07104873657226562,21.970272064208984,22.04132080078125,22.086381912231445,22.551298141479492
1758643834.4144347,1758643834.4157562,24.263381958007812,0.0133514404296875,0.0705718994140625,21.941423416137695,22.011995315551758,22.057533264160156,22.5069522857666
1758643834.4388402,1758643834.4401398,24.26004409790039,0.016689300537109375,0.07128715515136719,21.959781646728516,22.031068801879883,22.076845169067383,22.53866195678711
1758643834.4632442,1758643834.4645417,24.215221405029297,0.022411346435546875,0.07081031799316406,21.90876007080078,21.979570388793945,22.036314010620117,22.495031356811523
1758643834.48761,1758643834.4889042,24.190902709960938,0.016689300537109375,0.07081031799316406,21.991968154907227,22.06277847290039,22.109031677246094,22.57680892944336
1758643834.5120463,1758643834.5133493,24.227380752563477,0.016927719116210938,0.07081031799316406,21.960973739624023,22.031784057617188,22.077560424804688,22.557497024536133
1758643834.5364604,1758643834.5377889,18.912553787231445,0.016689300537109375,0.06985664367675781,16.689300537109375,16.759157180786133,16.806364059448242,17.287254333496094
1758643834.555622,1758643834.5569215,23.98204803466797,0.016927719116210938,0.07104873657226562,21.76642417907715,21.837472915649414,21.883726119995117,22.347688674926758
1758643834.5798504,1758643834.5811477,24.19734001159668,0.016689300537109375,0.07271766662597656,21.89946174621582,21.972179412841797,22.0184326171875,22.484540939331055
1758643834.604192,1758643834.6055298,24.142742156982422,0.02288818359375,0.07009506225585938,21.803617477416992,21.87371253967285,21.92521095275879,22.426128387451172
1758643834.6284792,1758643834.629789,24.26910400390625,0.016450881958007812,0.07152557373046875,21.920204162597656,21.991729736328125,22.040843963623047,22.56464958190918
1758643834.6528504,1758643834.654207,25.151491165161133,0.016450881958007812,0.07128715515136719,22.790908813476562,22.86219596862793,22.90821075439453,23.383378982543945
1758643834.6781428,1758643834.6794467,24.660587310791016,0.01621246337890625,0.0705718994140625,22.342443466186523,22.413015365600586,22.45807647705078,22.92633056640625
1758643834.7029488,1758643834.7042456,24.288654327392578,0.015735626220703125,0.07176399230957031,21.994590759277344,22.066354751586914,22.11165428161621,22.5679874420166
1758643834.7273817,1758643834.7286928,24.33466911315918,0.016689300537109375,0.07176399230957031,22.00794219970703,22.0797061920166,22.125720977783203,22.591352462768555
1758643834.75186,1758643834.753206,24.495601654052734,0.0171661376953125,0.07104873657226562,22.14956283569336,22.220611572265625,22.26734161376953,22.73869514465332
1758643834.7765002,1758643834.777856,24.181604385375977,0.015735626220703125,0.07033348083496094,21.81386947631836,21.88420295715332,21.92974090576172,22.432565689086914
1758643834.8008235,1758643834.8021176,24.14393424987793,0.0171661376953125,0.07033348083496094,21.884918212890625,21.955251693725586,22.002220153808594,22.465229034423828
1758643834.8251534,1758643834.8264492,22.11451530456543,0.016689300537109375,0.07081031799316406,19.808292388916016,19.87910270690918,19.92511749267578,20.391225814819336
1758643834.8474104,1758643834.8487494,24.160146713256836,0.015974044799804688,0.0705718994140625,21.80790901184082,21.878480911254883,21.927833557128906,22.44114875793457
1758643834.8717122,1758643834.8730042,24.1546630859375,0.016689300537109375,0.07224082946777344,21.848201751708984,21.920442581176758,21.96669578552246,22.427797317504883
1758643834.8960116,1758643834.8973403,24.281978607177734,0.01621246337890625,0.07104873657226562,21.951913833618164,22.02296257019043,22.068262100219727,22.559642791748047
1758643834.9204357,1758643834.9217355,24.35159683227539,0.015497207641601562,0.06890296936035156,22.050142288208008,22.11904525756836,22.164106369018555,22.633075714111328
1758643834.9449308,1758643834.9462388,24.27053451538086,0.016927719116210938,0.07176399230957031,21.971702575683594,22.043466567993164,22.089719772338867,22.556543350219727
1758643834.9693422,1758643834.9706833,24.37281608581543,0.01811981201171875,0.0705718994140625,22.02892303466797,22.09949493408203,22.160768508911133,22.655725479125977
1758643834.9938583,1758643834.9951444,24.295806884765625,0.015974044799804688,0.0705718994140625,22.001981735229492,22.072553634643555,22.11785316467285,22.577762603759766
1758643835.0182958,1758643835.0196066,19.18339729309082,0.016927719116210938,0.07104873657226562,16.88385009765625,16.954898834228516,17.000436782836914,17.46964454650879
1758643835.0376456,1758643835.0389228,23.791790008544922,0.015735626220703125,0.07033348083496094,21.619319915771484,21.689653396606445,21.73471450805664,22.18914031982422
1758643835.0616844,1758643835.0629747,23.955345153808594,0.015735626220703125,0.06985664367675781,21.67820930480957,21.748065948486328,21.79241180419922,22.25208282470703
1758643835.0857852,1758643835.0870805,24.274587631225586,0.014066696166992188,0.06961822509765625,21.975040435791016,22.044658660888672,22.091388702392578,22.530078887939453
1758643835.1102018,1758643835.1114972,24.019718170166016,0.01621246337890625,0.07748603820800781,21.70109748840332,21.778583526611328,21.82483673095703,22.284746170043945
1758643835.1343253,1758643835.135675,24.176597595214844,0.016927719116210938,0.07081031799316406,21.84009552001953,21.910905838012695,21.9573974609375,22.43185043334961
1758643835.1586652,1758643835.1599789,25.217771530151367,0.01621246337890625,0.06961822509765625,22.997617721557617,23.067235946655273,23.11253547668457,23.6051082611084
1758643835.1841323,1758643835.185432,24.6274471282959,0.016450881958007812,0.07033348083496094,22.314786911010742,22.385120391845703,22.4306583404541,22.89557456970215
1758643835.2089045,1758643835.2102003,23.98395538330078,0.016450881958007812,0.07224082946777344,21.683454513549805,21.755695343017578,21.800756454467773,22.261857986450195
1758643835.2330337,1758643835.2343688,24.219512939453125,0.015735626220703125,0.0705718994140625,21.88563346862793,21.956205368041992,22.000789642333984,22.49598503112793
1758643835.2573957,1758643835.2587087,24.29819107055664,0.01621246337890625,0.07152557373046875,21.990299224853516,22.061824798583984,22.10688591003418,22.573232650756836
1758643835.2818387,1758643835.2831275,24.369239807128906,0.016689300537109375,0.07128715515136719,22.053241729736328,22.124528884887695,22.170543670654297,22.63045310974121
1758643835.3063514,1758643835.307669,21.949052810668945,0.015020370483398438,0.06961822509765625,19.655227661132812,19.72484588623047,19.77229118347168,20.23625373840332
1758643835.328444,1758643835.3297603,24.0480899810791,0.015020370483398438,0.07009506225585938,21.771907806396484,21.842002868652344,21.886110305786133,22.32503890991211
1758643835.352657,1758643835.3539658,24.17278289794922,0.0152587890625,0.06985664367675781,21.85201644897461,21.921873092651367,21.965980529785156,22.39513397216797
1758643835.3769724,1758643835.3782697,24.16849136352539,0.016927719116210938,0.07152557373046875,21.8658447265625,21.93737030029297,21.982669830322266,22.444486618041992
1758643835.401285,1758643835.402596,24.21736717224121,0.01621246337890625,0.07200241088867188,21.907567977905273,21.979570388793945,22.025108337402344,22.49622344970703
1758643835.4256544,1758643835.4269648,24.30868148803711,0.0152587890625,0.07033348083496094,22.0034122467041,22.073745727539062,22.11904525756836,22.59540557861328
1758643835.450106,1758643835.451444,24.31321144104004,0.015974044799804688,0.07009506225585938,21.977663040161133,22.047758102416992,22.093534469604492,22.594451904296875
1758643835.4745705,1758643835.4758747,24.364948272705078,0.015974044799804688,0.07271766662597656,22.047042846679688,22.119760513305664,22.16506004333496,22.635936737060547
1758643835.49908,1758643835.5004098,19.25182342529297,0.016927719116210938,0.07104873657226562,16.928911209106445,16.99995994567871,17.045974731445312,17.54283905029297
1758643835.518473,1758643835.5197682,24.077415466308594,0.015974044799804688,0.06961822509765625,21.866559982299805,21.93617820739746,21.98505401611328,22.46832847595215
1758643835.5427933,1758643835.5440903,24.032115936279297,0.0171661376953125,0.07271766662597656,21.724224090576172,21.79694175720215,21.84271812438965,22.304773330688477
1758643835.5669715,1758643835.5682783,24.17778968811035,0.016450881958007812,0.0705718994140625,21.862030029296875,21.932601928710938,21.977901458740234,22.441625595092773
1758643835.5912938,1758643835.5925953,24.020671844482422,0.015020370483398438,0.07033348083496094,21.72255516052246,21.792888641357422,21.837234497070312,22.282838821411133
1758643835.6154177,1758643835.6167977,24.236679077148438,0.016689300537109375,0.07152557373046875,21.86107635498047,21.932601928710938,21.97742462158203,22.480010986328125
1758643835.6397972,1758643835.6411228,25.095462799072266,0.016689300537109375,0.07009506225585938,22.760391235351562,22.830486297607422,22.87912368774414,23.365259170532227
1758643835.6650364,1758643835.666347,24.333477020263672,0.0171661376953125,0.07295608520507812,22.022724151611328,22.095680236816406,22.14217185974121,22.611141204833984
1758643835.6895132,1758643835.6908762,24.62029457092285,0.015974044799804688,0.06961822509765625,22.24898338317871,22.318601608276367,22.363901138305664,22.87006378173828
1758643835.7142758,1758643835.7155821,24.51467514038086,0.016689300537109375,0.07033348083496094,22.185564041137695,22.255897521972656,22.301435470581055,22.77064323425293
1758643835.7389343,1758643835.7402596,23.869991302490234,0.016689300537109375,0.07128715515136719,21.547555923461914,21.61884307861328,21.66461944580078,22.13430404663086
1758643835.7629478,1758643835.7642758,24.282455444335938,0.015974044799804688,0.07128715515136719,21.953582763671875,22.024869918823242,22.07016944885254,22.527694702148438
1758643835.787373,1758643835.7886786,21.808147430419922,0.0171661376953125,0.07081031799316406,19.495487213134766,19.56629753112793,19.61231231689453,20.084381103515625
1758643835.809323,1758643835.8106256,24.2617130279541,0.016450881958007812,0.07128715515136719,21.956682205200195,22.027969360351562,22.074222564697266,22.546052932739258
1758643835.8337262,1758643835.8350573,31.476497650146484,0.015974044799804688,0.07009506225585938,25.732755661010742,25.8028507232666,25.8481502532959,26.345014572143555
1758643835.865346,1758643835.8666625,19.01555061340332,0.015974044799804688,0.06961822509765625,16.72053337097168,16.790151596069336,16.835689544677734,17.311573028564453
1758643835.8845055,1758643835.8858156,24.306774139404297,0.015974044799804688,0.07128715515136719,22.03083038330078,22.10211753845215,22.147178649902344,22.62091636657715
1758643835.9089558,1758643835.9102767,24.38068389892578,0.015497207641601562,0.0705718994140625,22.060632705688477,22.13120460510254,22.176265716552734,22.682905197143555
1758643835.9334817,1758643835.9347868,24.243593215942383,0.01621246337890625,0.0705718994140625,21.950244903564453,22.020816802978516,22.066116333007812,22.533893585205078
1758643835.957868,1758643835.9591632,22.485017776489258,0.01621246337890625,0.06914138793945312,20.279884338378906,20.34902572631836,20.402908325195312,20.8742618560791
1758643835.9806142,1758643835.981916,18.903255462646484,0.015735626220703125,0.07081031799316406,16.701698303222656,16.77250862121582,16.817092895507812,17.28224754333496
1758643835.9997668,1758643836.0010686,23.960590362548828,0.016450881958007812,0.06985664367675781,21.668434143066406,21.738290786743164,21.784067153930664,22.2475528717041
1758643836.0238705,1758643836.025145,24.318456649780273,0.014066696166992188,0.06985664367675781,22.03965187072754,22.109508514404297,22.152423858642578,22.578954696655273
1758643836.0483315,1758643836.0496247,24.143695831298828,0.016689300537109375,0.07128715515136719,21.860361099243164,21.93164825439453,21.978139877319336,22.443056106567383
1758643836.072624,1758643836.073919,24.160385131835938,0.016450881958007812,0.07009506225585938,21.852970123291016,21.923065185546875,21.9724178314209,22.4459171295166
1758643836.096889,1758643836.0982704,24.185895919799805,0.017642974853515625,0.07104873657226562,21.795988082885742,21.867036819458008,21.913766860961914,22.413253784179688
1758643836.121219,1758643836.1224923,25.501489639282227,0.016927719116210938,0.07963180541992188,23.207902908325195,23.287534713745117,23.334026336669922,23.789644241333008
1758643836.1468647,1758643836.14816,24.293899536132812,0.016689300537109375,0.07200241088867188,21.986961364746094,22.058963775634766,22.104740142822266,22.565603256225586
1758643836.1713006,1758643836.1726189,24.262428283691406,0.014543533325195312,0.07224082946777344,22.048473358154297,22.12071418762207,22.16482162475586,22.609949111938477
1758643836.1958196,1758643836.1971226,24.271488189697266,0.016450881958007812,0.07081031799316406,21.97575569152832,22.046566009521484,22.092342376708984,22.5527286529541
1758643836.2202344,1758643836.2215686,24.361133575439453,0.015020370483398438,0.07033348083496094,22.035598754882812,22.105932235717773,22.150039672851562,22.58896827697754
1758643836.2447395,1758643836.2460344,24.455785751342773,0.016450881958007812,0.06985664367675781,22.156953811645508,22.226810455322266,22.272109985351562,22.74179458618164
1758643836.269338,1758643836.2706785,21.75426483154297,0.016927719116210938,0.07128715515136719,19.40155029296875,19.472837448120117,19.520044326782227,20.03002166748047
1758643836.2912369,1758643836.2925394,24.052143096923828,0.021696090698242188,0.07081031799316406,21.73638343811035,21.807193756103516,21.861553192138672,22.341251373291016
1758643836.3154325,1758643836.316745,24.221420288085938,0.015497207641601562,0.07128715515136719,21.88587188720703,21.9571590423584,22.001981735229492,22.471189498901367
1758643836.3397973,1758643836.341084,24.262428283691406,0.015974044799804688,0.07104873657226562,21.982431411743164,22.05348014831543,22.098779678344727,22.561073303222656
1758643836.3642051,1758643836.3655033,24.19447898864746,0.015974044799804688,0.07677078247070312,21.8961238861084,21.9728946685791,22.017478942871094,22.487163543701172
1758643836.3885517,1758643836.3898702,24.27077293395996,0.01621246337890625,0.07033348083496094,21.954059600830078,22.02439308166504,22.069931030273438,22.56488800048828
1758643836.4129653,1758643836.4142716,24.187803268432617,0.016689300537109375,0.07367134094238281,21.983861923217773,22.057533264160156,22.104501724243164,22.568702697753906
1758643836.4373965,1758643836.4387062,24.356603622436523,0.017404556274414062,0.07271766662597656,22.031784057617188,22.104501724243164,22.15123176574707,22.62091636657715
1758643836.461896,1758643836.4631987,18.995046615600586,0.016689300537109375,0.06961822509765625,16.701936721801758,16.771554946899414,16.81804656982422,17.2727108001709
1758643836.4810357,1758643836.48233,24.055004119873047,0.015735626220703125,0.07081031799316406,21.77119255065918,21.842002868652344,21.88706398010254,22.345542907714844
1758643836.5052352,1758643836.5065315,24.12724494934082,0.02288818359375,0.07152557373046875,21.8203067779541,21.89183235168457,21.947860717773438,22.429943084716797
1758643836.5295053,1758643836.5307956,24.092912673950195,0.013828277587890625,0.07224082946777344,21.81553840637207,21.887779235839844,21.930932998657227,22.36151695251465
1758643836.5537386,1758643836.5550275,24.024009704589844,0.01621246337890625,0.06985664367675781,21.742820739746094,21.81267738342285,21.85797691345215,22.31740951538086
1758643836.5779068,1758643836.5792174,24.144887924194336,0.016689300537109375,0.07104873657226562,21.88396453857422,21.955013275146484,22.001981735229492,22.46260643005371
1758643836.602154,1758643836.6034725,25.292158126831055,0.01430511474609375,0.07843971252441406,22.988557815551758,23.066997528076172,23.110389709472656,23.538827896118164
1758643836.6275945,1758643836.6289337,34.468889236450195,0.016689300537109375,0.07104873657226562,28.836488723754883,28.90753746032715,28.95355224609375,29.47545051574707
1758643836.6621652,1758643836.6634536,20.998001098632812,0.015974044799804688,0.07271766662597656,18.724679946899414,18.79739761352539,18.84317398071289,19.303560256958008
1758643836.6832657,1758643836.6845686,24.38974380493164,0.016689300537109375,0.07200241088867188,22.121906280517578,22.19390869140625,22.23944664001465,22.70650863647461
1758643836.7077575,1758643836.709068,26.520490646362305,0.013589859008789062,0.06937980651855469,24.250030517578125,24.31941032409668,24.36518669128418,24.81675148010254
1758643836.7343812,1758643836.739089,24.43718910217285,0.0152587890625,0.07081031799316406,18.755435943603516,18.82624626159668,18.871307373046875,19.344091415405273
1758643836.758922,1758643836.7602518,21.43716812133789,0.016450881958007812,0.07152557373046875,19.118309020996094,19.189834594726562,19.23537254333496,19.708871841430664
1758643836.7805,1758643836.781802,24.788618087768555,0.014781951904296875,0.06937980651855469,22.487640380859375,22.55702018737793,22.600412368774414,23.037433624267578
1758643836.8054326,1758643836.8067448,23.680686950683594,0.015974044799804688,0.07033348083496094,21.37923240661621,21.449565887451172,21.49486541748047,21.964550018310547
1758643836.8292537,1758643836.8305438,24.43718910217285,0.024080276489257812,0.07128715515136719,22.12214469909668,22.193431854248047,22.249698638916016,22.746801376342773
1758643836.8538315,1758643836.8551297,24.141550064086914,0.01621246337890625,0.0705718994140625,21.83842658996582,21.908998489379883,21.954774856567383,22.415637969970703
1758643836.8781161,1758643836.879436,24.245738983154297,0.01621246337890625,0.06985664367675781,21.93593978881836,22.005796432495117,22.050857543945312,22.549152374267578
1758643836.9025037,1758643836.903798,24.159669876098633,0.015974044799804688,0.07009506225585938,21.91329002380371,21.98338508605957,22.028684616088867,22.493362426757812
1758643836.9268527,1758643836.9281604,15.942573547363281,0.016450881958007812,0.0705718994140625,13.646602630615234,13.717174530029297,13.762235641479492,14.220237731933594
1758643836.9429407,1758643836.9442368,23.926734924316406,0.014066696166992188,0.07152557373046875,21.625995635986328,21.697521209716797,21.744251251220703,22.19223976135254
1758643836.9670124,1758643836.968313,24.081945419311523,0.01621246337890625,0.0705718994140625,21.78335189819336,21.853923797607422,21.898984909057617,22.35889434814453
1758643836.9912364,1758643836.9925559,24.298429489135742,0.016927719116210938,0.07152557373046875,21.98195457458496,22.05348014831543,22.099971771240234,22.57537841796875
1758643837.0156825,1758643837.0169704,24.19757843017578,0.016689300537109375,0.07081031799316406,21.998167037963867,22.06897735595703,22.11451530456543,22.576332092285156
1758643837.04014,1758643837.0414386,23.961782455444336,0.01621246337890625,0.0705718994140625,21.677017211914062,21.747589111328125,21.793603897094727,22.252559661865234
1758643837.0642443,1758643837.0655754,22.80449867248535,0.019788742065429688,0.0705718994140625,20.46823501586914,20.538806915283203,20.601987838745117,21.101951599121094
1758643837.0871944,1758643837.0885015,24.321556091308594,0.0171661376953125,0.07748603820800781,22.01557159423828,22.09305763244629,22.139549255371094,22.603750228881836
1758643837.111667,1758643837.112958,24.158954620361328,0.016450881958007812,0.0705718994140625,21.87800407409668,21.948575973510742,21.994352340698242,22.457122802734375
1758643837.1359713,1758643837.1372502,24.37591552734375,0.015735626220703125,0.06890296936035156,22.10068702697754,22.16958999633789,22.214412689208984,22.676467895507812
1758643837.1604893,1758643837.1617985,24.29342269897461,0.01621246337890625,0.07104873657226562,22.06563949584961,22.136688232421875,22.182226181030273,22.647380828857422
1758643837.1850247,1758643837.1863356,24.335622787475586,0.015497207641601562,0.07128715515136719,22.046804428100586,22.118091583251953,22.16339111328125,22.622108459472656
1758643837.209503,1758643837.2108066,24.14846420288086,0.015735626220703125,0.0705718994140625,21.945953369140625,22.016525268554688,22.061824798583984,22.528648376464844
1758643837.233751,1758643837.2351043,22.08089828491211,0.015020370483398438,0.07033348083496094,19.80447769165039,19.87481117248535,19.91891860961914,20.366668701171875
1758643837.2560225,1758643837.257304,23.990154266357422,0.015497207641601562,0.07224082946777344,21.692276000976562,21.764516830444336,21.808862686157227,22.266387939453125
1758643837.2801535,1758643837.2814684,24.552106857299805,0.016689300537109375,0.07891654968261719,22.202014923095703,22.28093147277832,22.33099937438965,22.838354110717773
1758643837.3048518,1758643837.306154,23.844003677368164,0.016689300537109375,0.07104873657226562,21.533966064453125,21.60501480102539,21.651506423950195,22.11308479309082
1758643837.328839,1758643837.3301396,24.147987365722656,0.016689300537109375,0.07104873657226562,21.942615509033203,22.01366424560547,22.060155868530273,22.520065307617188
1758643837.353231,1758643837.354524,24.262666702270508,0.015974044799804688,0.07796287536621094,21.975994110107422,22.053956985473633,22.09925651550293,22.56321907043457
1758643837.377662,1758643837.3789747,24.338245391845703,0.015735626220703125,0.06961822509765625,22.016286849975586,22.085905075073242,22.130727767944336,22.621870040893555
1758643837.4021435,1758643837.403417,20.42698860168457,0.016689300537109375,0.07033348083496094,18.137693405151367,18.208026885986328,18.25714111328125,18.73159408569336
1758643837.4227126,1758643837.4240391,24.77288246154785,0.016927719116210938,0.07128715515136719,22.458553314208984,22.52984046936035,22.575855255126953,23.074626922607422
1758643837.4476342,1758643837.448934,23.954153060913086,0.016450881958007812,0.06937980651855469,21.658897399902344,21.7282772064209,21.773815155029297,22.23491668701172
1758643837.471731,1758643837.473027,24.008512496948242,0.01621246337890625,0.07152557373046875,21.817445755004883,21.88897132873535,21.933794021606445,22.39060401916504
1758643837.4959805,1758643837.4972603,24.06764030456543,0.016450881958007812,0.06961822509765625,21.780729293823242,21.8503475189209,21.895885467529297,22.35102653503418
1758643837.520191,1758643837.521519,24.100303649902344,0.015735626220703125,0.07867813110351562,21.754741668701172,21.833419799804688,21.882295608520508,22.388696670532227
1758643837.5444367,1758643837.545732,22.529125213623047,0.016689300537109375,0.07152557373046875,20.225048065185547,20.296573638916016,20.34282684326172,20.81298828125
1758643837.567108,1758643837.568403,24.222850799560547,0.01621246337890625,0.07152557373046875,21.94046974182129,22.011995315551758,22.05824851989746,22.522449493408203
1758643837.591475,1758643837.592774,24.417400360107422,0.016927719116210938,0.07152557373046875,22.216796875,22.28832244873047,22.335052490234375,22.81045913696289
1758643837.6161366,1758643837.617421,24.26004409790039,0.016450881958007812,0.07152557373046875,21.98195457458496,22.05348014831543,22.099733352661133,22.562503814697266
1758643837.6405377,1758643837.6419065,24.382352828979492,0.01430511474609375,0.0705718994140625,22.011756896972656,22.08232879638672,22.12977409362793,22.577285766601562
1758643837.6650608,1758643837.6663575,24.22618865966797,0.015497207641601562,0.0705718994140625,21.936893463134766,22.007465362548828,22.05204963684082,22.512435913085938
1758643837.68943,1758643837.6907322,28.07021141052246,0.016450881958007812,0.07128715515136719,25.765419006347656,25.836706161499023,25.882244110107422,26.34906768798828
1758643837.7176113,1758643837.7189472,22.57227897644043,0.015497207641601562,0.07104873657226562,20.23148536682129,20.302534103393555,20.34759521484375,20.831823348999023
1758643837.7403266,1758643837.7416828,24.117708206176758,0.017642974853515625,0.0705718994140625,21.754980087280273,21.825551986694336,21.8813419342041,22.378206253051758
1758643837.7645962,1758643837.7659333,24.14727210998535,0.01621246337890625,0.07104873657226562,21.82149887084961,21.892547607421875,21.938562393188477,22.437572479248047
1758643837.7888873,1758643837.7902198,24.23572540283203,0.015974044799804688,0.0705718994140625,21.905899047851562,21.976470947265625,22.021770477294922,22.5222110748291
1758643837.8132684,1758643837.81457,24.505138397216797,0.015735626220703125,0.07081031799316406,22.205114364624023,22.275924682617188,22.321462631225586,22.788524627685547
1758643837.8379185,1758643837.8392105,24.279356002807617,0.015497207641601562,0.07104873657226562,21.965980529785156,22.037029266357422,22.08256721496582,22.548675537109375
1758643837.8623393,1758643837.8636794,24.193525314331055,0.019550323486328125,0.07009506225585938,21.854400634765625,21.924495697021484,21.9881534576416,22.48859405517578
1758643837.886697,1758643837.8879905,15.567302703857422,0.015735626220703125,0.06937980651855469,13.281822204589844,13.351202011108398,13.396263122558594,13.852596282958984
1758643837.9024098,1758643837.9037154,24.63841438293457,0.016927719116210938,0.07176399230957031,22.3391056060791,22.410869598388672,22.457599639892578,22.92656898498535
1758643837.9271898,1758643837.9284756,24.0938663482666,0.016450881958007812,0.07843971252441406,21.80790901184082,21.886348724365234,21.931886672973633,22.390365600585938
1758643837.9514256,1758643837.952729,23.969411849975586,0.016927719116210938,0.07081031799316406,21.676063537597656,21.74687385559082,21.79265022277832,22.26853370666504
1758643837.9755383,1758643837.9768434,24.122953414916992,0.015974044799804688,0.06937980651855469,21.888256072998047,21.9576358795166,22.006750106811523,22.501468658447266
1758643837.9999022,1758643838.001223,23.96082878112793,0.015974044799804688,0.07009506225585938,21.649599075317383,21.719694137573242,21.765947341918945,22.226810455322266
1758643838.0240061,1758643838.0253313,22.779464721679688,0.016689300537109375,0.06985664367675781,20.451784133911133,20.52164077758789,20.567655563354492,21.062374114990234
1758643838.04693,1758643838.0482278,24.202346801757812,0.016927719116210938,0.07152557373046875,21.912574768066406,21.984100341796875,22.03083038330078,22.489070892333984
1758643838.0712736,1758643838.072599,24.39594268798828,0.016450881958007812,0.07009506225585938,22.06873893737793,22.13883399963379,22.185325622558594,22.676467895507812
1758643838.0958118,1758643838.0970924,24.22785758972168,0.016450881958007812,0.06985664367675781,21.941423416137695,22.011280059814453,22.061586380004883,22.535324096679688
1758643838.1201818,1758643838.1214821,24.356365203857422,0.015974044799804688,0.0782012939453125,22.064924240112305,22.143125534057617,22.18794822692871,22.65620231628418
1758643838.144764,1758643838.1460454,24.283409118652344,0.0152587890625,0.0705718994140625,22.00460433959961,22.075176239013672,22.119998931884766,22.547245025634766
1758643838.1691906,1758643838.170492,24.324417114257812,0.016689300537109375,0.07867813110351562,22.031307220458984,22.1099853515625,22.15576171875,22.616863250732422
1758643838.1936653,1758643838.1949484,22.24278450012207,0.01621246337890625,0.07033348083496094,19.922733306884766,19.993066787719727,20.04408836364746,20.49708366394043
1758643838.2160118,1758643838.2173536,24.00517463684082,0.015735626220703125,0.0705718994140625,21.657943725585938,21.728515625,21.776914596557617,22.25351333618164
1758643838.2401607,1758643838.241454,24.126529693603516,0.016689300537109375,0.07104873657226562,21.840810775756836,21.9118595123291,21.95882797241211,22.420883178710938
1758643838.2644281,1758643838.2657213,24.295330047607422,0.016450881958007812,0.07200241088867188,22.00460433959961,22.07660675048828,22.122859954833984,22.594928741455078
1758643838.2888663,1758643838.290165,24.179935455322266,0.016450881958007812,0.07009506225585938,21.888256072998047,21.958351135253906,22.00460433959961,22.46689796447754
1758643838.3131888,1758643838.3145044,24.80626106262207,0.016450881958007812,0.07748603820800781,22.459030151367188,22.536516189575195,22.582054138183594,23.047924041748047
1758643838.3381405,1758643838.3394673,23.911714553833008,0.016689300537109375,0.07987022399902344,21.583080291748047,21.66295051574707,21.709442138671875,22.167444229125977
1758643838.3621936,1758643838.363487,20.306825637817383,0.016450881958007812,0.07796287536621094,17.992019653320312,18.069982528686523,18.116235733032227,18.573522567749023
1758643838.3826628,1758643838.3839543,21.08001708984375,0.016450881958007812,0.06961822509765625,18.880605697631836,18.950223922729492,18.996238708496094,19.452571868896484
1758643838.4039853,1758643838.4052827,24.107694625854492,0.01621246337890625,0.07033348083496094,21.821975708007812,21.892309188842773,21.938085556030273,22.396087646484375
1758643838.4282348,1758643838.4295585,24.295568466186523,0.0171661376953125,0.07081031799316406,21.970272064208984,22.04108238220215,22.09162712097168,22.603750228881836
1758643838.4526904,1758643838.4539928,23.771047592163086,0.016927719116210938,0.07152557373046875,21.578311920166016,21.649837493896484,21.695613861083984,22.158145904541016
1758643838.47672,1758643838.4780157,23.95033836364746,0.015497207641601562,0.07104873657226562,21.758079528808594,21.82912826538086,21.874427795410156,22.336483001708984
1758643838.5009134,1758643838.5022073,22.583723068237305,0.015735626220703125,0.06961822509765625,20.3096866607666,20.379304885864258,20.424842834472656,20.888328552246094
1758643838.5236619,1758643838.5249891,24.90520477294922,0.015735626220703125,0.07009506225585938,22.576093673706055,22.646188735961914,22.690773010253906,23.186206817626953
1758643838.5487106,1758643838.549994,24.161815643310547,0.016450881958007812,0.06961822509765625,21.956443786621094,22.02606201171875,22.07493782043457,22.547006607055664
1758643838.5731113,1758643838.5743933,24.186372756958008,0.016689300537109375,0.07033348083496094,21.918296813964844,21.988630294799805,22.03512191772461,22.498130798339844
1758643838.5974402,1758643838.5987697,24.367570877075195,0.01621246337890625,0.07033348083496094,22.05038070678711,22.12071418762207,22.16625213623047,22.663593292236328
1758643838.6219528,1758643838.6232555,24.28150177001953,0.015974044799804688,0.07200241088867188,21.983861923217773,22.055864334106445,22.101640701293945,22.564411163330078
1758643838.646338,1758643838.647636,24.142742156982422,0.015497207641601562,0.07104873657226562,21.86298370361328,21.934032440185547,21.97861671447754,22.421598434448242
1758643838.6705945,1758643838.6719873,21.938800811767578,0.016689300537109375,0.07224082946777344,19.561052322387695,19.63329315185547,19.679784774780273,20.197629928588867
1758643838.6926975,1758643838.6940296,24.294376373291016,0.016689300537109375,0.06985664367675781,21.96955680847168,22.039413452148438,22.08542823791504,22.579193115234375
1758643838.7171385,1758643838.7184393,24.1241455078125,0.01621246337890625,0.06985664367675781,21.813631057739258,21.883487701416016,21.929025650024414,22.389650344848633
1758643838.7414052,1758643838.7427156,24.105072021484375,0.01621246337890625,0.0705718994140625,21.841764450073242,21.912336349487305,21.958351135253906,22.437572479248047
1758643838.765662,1758643838.7669826,24.372577667236328,0.01621246337890625,0.07176399230957031,22.052526473999023,22.124290466308594,22.173166275024414,22.68218994140625
1758643838.7901802,1758643838.7914639,24.242162704467773,0.016689300537109375,0.07581710815429688,21.968364715576172,22.04418182373047,22.094249725341797,22.552490234375
1758643838.8145833,1758643838.8159196,24.388551712036133,0.015497207641601562,0.07081031799316406,22.05824851989746,22.129058837890625,22.17411994934082,22.67932891845703
1758643838.839116,1758643838.8404377,24.034738540649414,0.016450881958007812,0.07033348083496094,21.709918975830078,21.78025245666504,21.82602882385254,22.313356399536133
1758643838.8632934,1758643838.864591,19.21248435974121,0.016689300537109375,0.07081031799316406,16.937732696533203,17.008543014526367,17.055034637451172,17.51708984375
1758643838.8826644,1758643838.8839579,24.053335189819336,0.015974044799804688,0.07104873657226562,21.738052368164062,21.809101104736328,21.85845375061035,22.330284118652344
1758643838.9068615,1758643838.9081585,24.29962158203125,0.016927719116210938,0.07104873657226562,22.010326385498047,22.081375122070312,22.127389907836914,22.592782974243164
1758643838.9313025,1758643838.932632,24.259328842163086,0.016689300537109375,0.06866455078125,21.94380760192871,22.01247215270996,22.058486938476562,22.55535125732422
1758643838.9557064,1758643838.9569962,24.090290069580078,0.016450881958007812,0.06961822509765625,21.813154220581055,21.88277244567871,21.92854881286621,22.388935089111328
1758643838.9799407,1758643838.9812396,23.991107940673828,0.01621246337890625,0.07033348083496094,21.70395851135254,21.7742919921875,21.820068359375,22.28236198425293
1758643839.0040746,1758643839.0053675,25.54154396057129,0.0171661376953125,0.07009506225585938,23.244380950927734,23.314476013183594,23.364543914794922,23.8344669342041
1758643839.029759,1758643839.0310502,24.417877197265625,0.014066696166992188,0.07081031799316406,22.12238311767578,22.193193435668945,22.236347198486328,22.672176361083984
1758643839.0543208,1758643839.0556276,24.11484718322754,0.015735626220703125,0.0705718994140625,21.82292938232422,21.89350128173828,21.94356918334961,22.410869598388672
1758643839.078587,1758643839.0798876,24.475574493408203,0.016450881958007812,0.07009506225585938,22.168397903442383,22.238492965698242,22.284746170043945,22.748947143554688
1758643839.103206,1758643839.104491,24.1241455078125,0.014781951904296875,0.07843971252441406,21.84748649597168,21.925926208496094,21.970033645629883,22.395610809326172
1758643839.1274757,1758643839.1288157,24.39737319946289,0.016450881958007812,0.07152557373046875,22.06254005432129,22.134065628051758,22.180557250976562,22.683143615722656
1758643839.1520157,1758643839.1533124,21.880149841308594,0.016450881958007812,0.07152557373046875,19.577503204345703,19.649028778076172,19.694805145263672,20.154476165771484
1758643839.1739995,1758643839.1753228,24.0786075592041,0.016689300537109375,0.07009506225585938,21.767616271972656,21.837711334228516,21.88420295715332,22.34959602355957
1758643839.1982224,1758643839.1995573,24.526596069335938,0.016927719116210938,0.07033348083496094,22.202014923095703,22.272348403930664,22.318363189697266,22.819042205810547
1758643839.2228923,1758643839.224188,24.155855178833008,0.016450881958007812,0.07081031799316406,21.85368537902832,21.924495697021484,21.973133087158203,22.449493408203125
1758643839.2471938,1758643839.2484848,24.166345596313477,0.016450881958007812,0.07939338684082031,21.857738494873047,21.937131881713867,21.98314666748047,22.44710922241211
1758643839.271504,1758643839.272808,24.123191833496094,0.015735626220703125,0.07104873657226562,21.914958953857422,21.986007690429688,22.031545639038086,22.495031356811523
1758643839.2958739,1758643839.2972298,24.292707443237305,0.01621246337890625,0.07009506225585938,21.992921829223633,22.063016891479492,22.10855484008789,22.569894790649414
1758643839.3203533,1758643839.32165,24.718046188354492,0.015974044799804688,0.07200241088867188,22.407054901123047,22.47905731201172,22.524595260620117,22.995948791503906
1758643839.3452163,1758643839.346575,18.85366439819336,0.016450881958007812,0.07128715515136719,16.507863998413086,16.579151153564453,16.625165939331055,17.122983932495117
1758643839.364215,1758643839.365491,24.014711380004883,0.01621246337890625,0.07796287536621094,21.740198135375977,21.818161010742188,21.863460540771484,22.320985794067383
1758643839.3883748,1758643839.3896775,24.204492568969727,0.016689300537109375,0.07081031799316406,21.90399169921875,21.974802017211914,22.020578384399414,22.483348846435547
1758643839.4127226,1758643839.414003,24.016380310058594,0.015497207641601562,0.07104873657226562,21.83842658996582,21.909475326538086,21.954774856567383,22.407054901123047
1758643839.4369814,1758643839.438273,23.937702178955078,0.016927719116210938,0.07104873657226562,21.63529396057129,21.706342697143555,21.756649017333984,22.231578826904297
1758643839.4610622,1758643839.4623775,24.160385131835938,0.015735626220703125,0.0705718994140625,21.84319496154785,21.913766860961914,21.959781646728516,22.446393966674805
1758643839.485366,1758643839.486655,25.291919708251953,0.0171661376953125,0.07128715515136719,23.015499114990234,23.0867862701416,23.131847381591797,23.594141006469727
1758643839.5108013,1758643839.512082,24.283409118652344,0.015974044799804688,0.07009506225585938,22.015810012817383,22.085905075073242,22.130727767944336,22.58753776550293
1758643839.5352263,1758643839.536525,24.153709411621094,0.016689300537109375,0.07534027099609375,21.866559982299805,21.9419002532959,21.9876766204834,22.459745407104492
1758643839.559521,1758643839.5608482,24.456262588500977,0.015020370483398438,0.06961822509765625,22.144079208374023,22.21369743347168,22.258996963500977,22.749662399291992
1758643839.5841212,1758643839.5854325,24.33013916015625,0.016927719116210938,0.06961822509765625,22.032499313354492,22.10211753845215,22.14813232421875,22.633790969848633
1758643839.608602,1758643839.6098857,24.251222610473633,0.016689300537109375,0.06866455078125,21.979808807373047,22.048473358154297,22.0947265625,22.557735443115234
1758643839.6329968,1758643839.634299,21.770715713500977,0.015020370483398438,0.07033348083496094,19.47188377380371,19.542217254638672,19.587039947509766,20.018339157104492
1758643839.6548724,1758643839.6562033,26.89957618713379,0.016689300537109375,0.06985664367675781,24.450063705444336,24.519920349121094,24.590253829956055,25.086164474487305
1758643839.6819172,1758643839.6832504,23.532629013061523,0.018358230590820312,0.07104873657226562,21.189212799072266,21.26026153564453,21.31342887878418,21.786212921142578
1758643839.7056,1758643839.706879,24.154186248779297,0.015497207641601562,0.07033348083496094,21.88587188720703,21.956205368041992,22.00150489807129,22.465944290161133
1758643839.7298985,1758643839.731231,24.331092834472656,0.016450881958007812,0.0705718994140625,22.012710571289062,22.083282470703125,22.129058837890625,22.624492645263672
1758643839.7543738,1758643839.755686,24.227619171142578,0.015735626220703125,0.07104873657226562,21.924734115600586,21.99578285217285,22.040605545043945,22.505521774291992
1758643839.7787483,1758643839.7800527,24.333477020263672,0.016689300537109375,0.07104873657226562,22.034406661987305,22.10545539855957,22.155046463012695,22.628307342529297
1758643839.8032234,1758643839.8045065,22.67622947692871,0.016927719116210938,0.07796287536621094,20.392417907714844,20.470380783081055,20.515918731689453,20.971059799194336
1758643839.8260422,1758643839.827349,19.257783889770508,0.0152587890625,0.07033348083496094,16.938447952270508,17.00878143310547,17.052888870239258,17.492055892944336
1758643839.8454416,1758643839.8467288,23.797273635864258,0.016689300537109375,0.07176399230957031,21.51775360107422,21.58951759338379,21.63529396057129,22.099733352661133
1758643839.8693817,1758643839.8706772,24.217844009399414,0.015735626220703125,0.07033348083496094,21.930456161499023,22.000789642333984,22.045612335205078,22.51267433166504
1758643839.893742,1758643839.8950572,24.10888671875,0.015974044799804688,0.07081031799316406,21.773099899291992,21.843910217285156,21.893978118896484,22.3691463470459
1758643839.9180026,1758643839.9192927,23.952484130859375,0.01430511474609375,0.07081031799316406,21.67487144470215,21.745681762695312,21.78955078125,22.21846580505371
1758643839.9420996,1758643839.9433894,24.187088012695312,0.016450881958007812,0.06937980651855469,21.906375885009766,21.97575569152832,22.02153205871582,22.477388381958008
1758643839.9664285,1758643839.9677298,25.32958984375,0.016450881958007812,0.07176399230957031,23.03338050842285,23.105144500732422,23.156166076660156,23.619890213012695
1758643839.991903,1758643839.9932,24.298667907714844,0.015735626220703125,0.0705718994140625,22.013425827026367,22.08399772644043,22.128820419311523,22.584199905395508
1758643840.0163465,1758643840.017685,24.245023727416992,0.015735626220703125,0.072479248046875,21.918773651123047,21.991252899169922,22.035598754882812,22.49932289123535
1758643840.040733,1758643840.0420225,24.265050888061523,0.015974044799804688,0.06914138793945312,21.98028564453125,22.049427032470703,22.095441818237305,22.552013397216797
1758643840.0651426,1758643840.066467,24.381637573242188,0.017404556274414062,0.07939338684082031,22.047042846679688,22.126436233520508,22.173404693603516,22.66860008239746
1758643840.0896704,1758643840.0909514,24.31774139404297,0.016927719116210938,0.06985664367675781,22.04751968383789,22.11737632751465,22.164344787597656,22.62115478515625
1758643840.114131,1758643840.1154568,21.917104721069336,0.015974044799804688,0.07081031799316406,19.576549530029297,19.64735984802246,19.69623565673828,20.200014114379883
1758643840.1361895,1758643840.137484,24.063825607299805,0.015974044799804688,0.07939338684082031,21.775245666503906,21.854639053344727,21.900177001953125,22.360801696777344
1758643840.1603568,1758643840.161685,24.180173873901367,0.016927719116210938,0.0705718994140625,21.870136260986328,21.94070816040039,21.986722946166992,22.457122802734375
1758643840.1846867,1758643840.1859646,24.19304847717285,0.0171661376953125,0.07009506225585938,22.020578384399414,22.090673446655273,22.13740348815918,22.59683609008789
1758643840.2091198,1758643840.2104058,24.232864379882812,0.016927719116210938,0.07033348083496094,21.955251693725586,22.025585174560547,22.07207679748535,22.536516189575195
1758643840.233495,1758643840.234835,24.3380069732666,0.016450881958007812,0.07295608520507812,21.983861923217773,22.05681800842285,22.103071212768555,22.61519432067871
1758643840.2579744,1758643840.2593021,24.33633804321289,0.016689300537109375,0.07081031799316406,22.019147872924805,22.08995819091797,22.13597297668457,22.634506225585938
1758643840.2824512,1758643840.283742,24.30129051208496,0.016689300537109375,0.07033348083496094,22.01676368713379,22.08709716796875,22.133350372314453,22.603273391723633
1758643840.3068967,1758643840.308192,21.018505096435547,0.015497207641601562,0.06961822509765625,18.721818923950195,18.79143714904785,18.83721351623535,19.29640769958496
1758643840.328058,1758643840.329373,24.385452270507812,0.014781951904296875,0.06985664367675781,22.069215774536133,22.13907241821289,22.191286087036133,22.643089294433594
1758643840.3525941,1758643840.3539095,23.721694946289062,0.01621246337890625,0.07128715515136719,21.40355110168457,21.474838256835938,21.520376205444336,21.99554443359375
1758643840.3764594,1758643840.377781,24.180173873901367,0.0152587890625,0.07343292236328125,21.85511589050293,21.92854881286621,21.9728946685791,22.411823272705078
1758643840.4007847,1758643840.402072,23.952245712280273,0.016689300537109375,0.07224082946777344,21.678686141967773,21.750926971435547,21.79718017578125,22.2625732421875
1758643840.4248781,1758643840.4261675,22.799968719482422,0.016689300537109375,0.06961822509765625,20.52593231201172,20.595550537109375,20.64204216003418,21.09694480895996
1758643840.4478202,1758643840.449149,24.782657623291016,0.0171661376953125,0.06937980651855469,22.455453872680664,22.52483367919922,22.57537841796875,23.08797836303711
1758643840.472747,1758643840.4740381,24.152755737304688,0.01621246337890625,0.07009506225585938,21.96025848388672,22.030353546142578,22.07636833190918,22.534847259521484
1758643840.4971423,1758643840.4984374,24.210214614868164,0.016689300537109375,0.0705718994140625,21.936416625976562,22.006988525390625,22.053003311157227,22.528409957885742
1758643840.521496,1758643840.5227938,24.326324462890625,0.015497207641601562,0.07081031799316406,22.128582000732422,22.199392318725586,22.244930267333984,22.710800170898438
1758643840.5460842,1758643840.5473804,24.07693862915039,0.016450881958007812,0.06961822509765625,21.761178970336914,21.83079719543457,21.875619888305664,22.336244583129883
1758643840.5703063,1758643840.571643,24.412870407104492,0.018358230590820312,0.06961822509765625,22.083282470703125,22.15290069580078,22.215843200683594,22.71413803100586
1758643840.594861,1758643840.5961807,21.837234497070312,0.0171661376953125,0.06985664367675781,19.53291893005371,19.60277557373047,19.649267196655273,20.136117935180664
1758643840.616841,1758643840.618126,24.039745330810547,0.015974044799804688,0.07128715515136719,21.836280822753906,21.907567977905273,21.953105926513672,22.416114807128906
1758643840.6409805,1758643840.6423411,24.348020553588867,0.014543533325195312,0.06985664367675781,22.031307220458984,22.101163864135742,22.145748138427734,22.604942321777344
1758643840.6654716,1758643840.6667817,24.367332458496094,0.014781951904296875,0.07009506225585938,22.069692611694336,22.139787673950195,22.18484878540039,22.622346878051758
1758643840.6899807,1758643840.6912963,24.433374404907227,0.0152587890625,0.07176399230957031,22.12214469909668,22.19390869140625,22.242307662963867,22.732019424438477
1758643840.714562,1758643840.715853,24.239778518676758,0.016927719116210938,0.07128715515136719,21.96025848388672,22.031545639038086,22.078275680541992,22.543668746948242
1758643840.7389443,1758643840.7402744,24.217844009399414,0.016689300537109375,0.07033348083496094,21.889209747314453,21.959543228149414,22.00603485107422,22.49884605407715
1758643840.763305,1758643840.7646146,24.402379989624023,0.016450881958007812,0.07128715515136719,22.09162712097168,22.162914276123047,22.208690643310547,22.675514221191406
1758643840.787851,1758643840.7891414,19.22011375427246,0.016689300537109375,0.06985664367675781,16.929149627685547,16.999006271362305,17.04549789428711,17.505168914794922
1758643840.8072135,1758643840.8084946,24.092912673950195,0.016450881958007812,0.07700920104980469,21.807193756103516,21.88420295715332,21.93307876586914,22.411823272705078
1758643840.831451,1758643840.8327498,24.61862564086914,0.016927719116210938,0.07033348083496094,22.32813835144043,22.39847183227539,22.444725036621094,22.91703224182129
1758643840.8562121,1758643840.8574913,23.662090301513672,0.0171661376953125,0.07700920104980469,21.37279510498047,21.449804306030273,21.497011184692383,21.953821182250977
1758643840.8800168,1758643840.8812933,24.274826049804688,0.0171661376953125,0.0705718994140625,22.019624710083008,22.09019660949707,22.137165069580078,22.597789764404297
1758643840.9044344,1758643840.9057276,23.970603942871094,0.015020370483398438,0.07033348083496094,21.6982364654541,21.768569946289062,21.812915802001953,22.255659103393555
1758643840.9285514,1758643840.929856,25.429725646972656,0.015735626220703125,0.07152557373046875,23.134708404541016,23.206233978271484,23.250818252563477,23.736953735351562
1758643840.9541237,1758643840.9554102,24.181604385375977,0.016689300537109375,0.06985664367675781,21.915912628173828,21.985769271850586,22.03202247619629,22.498130798339844
1758643840.9784474,1758643840.9797614,24.368762969970703,0.017404556274414062,0.07009506225585938,22.04585075378418,22.11594581604004,22.162914276123047,22.658109664916992
1758643841.002958,1758643841.0042725,24.388790130615234,0.0152587890625,0.0705718994140625,22.090673446655273,22.161245346069336,22.205829620361328,22.7053165435791
1758643841.0274882,1758643841.0287902,24.132966995239258,0.01621246337890625,0.07200241088867188,21.923065185546875,21.995067596435547,22.043704986572266,22.5222110748291
1758643841.0518644,1758643841.053163,24.199724197387695,0.0171661376953125,0.07128715515136719,21.958112716674805,22.029399871826172,22.07636833190918,22.538185119628906
1758643841.0762491,1758643841.077532,21.985769271850586,0.023365020751953125,0.06985664367675781,19.707202911376953,19.77705955505371,19.829750061035156,20.290613174438477
1758643841.0983768,1758643841.0996938,24.086713790893555,0.016927719116210938,0.06866455078125,21.792173385620117,21.860837936401367,21.907329559326172,22.40753173828125
1758643841.1226223,1758643841.1239073,24.269580841064453,0.0171661376953125,0.07081031799316406,21.965742111206055,22.03655242919922,22.082805633544922,22.54009246826172
1758643841.1470351,1758643841.1483617,24.198055267333984,0.016927719116210938,0.07009506225585938,21.871328353881836,21.941423416137695,21.990537643432617,22.497177124023438
1758643841.1713367,1758643841.1726706,24.21402931213379,0.0171661376953125,0.07033348083496094,21.88587188720703,21.956205368041992,22.002458572387695,22.47023582458496
1758643841.1956956,1758643841.1969848,24.496793746948242,0.016450881958007812,0.07009506225585938,22.220611572265625,22.290706634521484,22.336244583129883,22.80116081237793
1758643841.2203333,1758643841.2216454,24.193525314331055,0.014781951904296875,0.07104873657226562,21.878480911254883,21.94952964782715,21.993398666381836,22.429704666137695
1758643841.2446864,1758643841.2459874,24.248361587524414,0.01621246337890625,0.07033348083496094,21.958351135253906,22.028684616088867,22.075176239013672,22.53556251525879
1758643841.2690766,1758643841.2703967,19.028902053833008,0.016689300537109375,0.07033348083496094,16.71910285949707,16.78943634033203,16.83640480041504,17.29416847229004
1758643841.288248,1758643841.2895858,24.0476131439209,0.016927719116210938,0.07152557373046875,21.71635627746582,21.78788185119629,21.834850311279297,22.3388671875
1758643841.312438,1758643841.3137321,24.091720581054688,0.016689300537109375,0.07009506225585938,21.812915802001953,21.883010864257812,21.928787231445312,22.396326065063477
1758643841.3366787,1758643841.3379738,24.218082427978516,0.016450881958007812,0.0705718994140625,21.91948890686035,21.990060806274414,22.036075592041016,22.496938705444336
1758643841.3610399,1758643841.3623762,24.46150779724121,0.01621246337890625,0.07128715515136719,22.10688591003418,22.178173065185547,22.228002548217773,22.754907608032227
1758643841.3856633,1758643841.3869529,23.65279197692871,0.015735626220703125,0.07224082946777344,21.469593048095703,21.541833877563477,21.586894989013672,22.05634117126465
1758643841.409565,1758643841.41085,25.075435638427734,0.01621246337890625,0.07033348083496094,22.898197174072266,22.968530654907227,23.014545440673828,23.479461669921875
1758643841.4348817,1758643841.4361784,24.4143009185791,0.0171661376953125,0.07033348083496094,22.13430404663086,22.20463752746582,22.250652313232422,22.718429565429688
1758643841.459438,1758643841.4607816,24.379491806030273,0.016689300537109375,0.07033348083496094,22.01986312866211,22.09019660949707,22.136449813842773,22.64857292175293
1758643841.4839675,1758643841.485276,24.324655532836914,0.016450881958007812,0.07128715515136719,22.033214569091797,22.104501724243164,22.150278091430664,22.605419158935547
1758643841.5084333,1758643841.5097194,24.33180809020996,0.014066696166992188,0.07033348083496094,22.083759307861328,22.15409278869629,22.197961807250977,22.63045310974121
1758643841.532909,1758643841.5342362,24.445295333862305,0.016927719116210938,0.07104873657226562,22.1250057220459,22.196054458618164,22.243738174438477,22.747039794921875
1758643841.5574965,1758643841.5587857,21.63982391357422,0.01621246337890625,0.07224082946777344,19.458532333374023,19.530773162841797,19.5767879486084,20.04528045654297
1758643841.5793777,1758643841.580684,25.292634963989258,0.016689300537109375,0.06985664367675781,22.573232650756836,22.643089294433594,22.720813751220703,23.356914520263672
1758643841.604813,1758643841.6063807,23.068904876708984,0.018596649169921875,0.08630752563476562,20.497798919677734,20.5841064453125,20.632505416870117,21.2860107421875
1758643841.6279838,1758643841.6293068,24.35445785522461,0.0171661376953125,0.06985664367675781,22.041797637939453,22.11165428161621,22.159337997436523,22.62711524963379
1758643841.6524394,1758643841.6537697,24.199247360229492,0.016450881958007812,0.06985664367675781,21.87967300415039,21.94952964782715,21.99578285217285,22.469043731689453
1758643841.6767828,1758643841.6781132,24.29795265197754,0.017404556274414062,0.07009506225585938,21.95572853088379,22.02582359313965,22.072553634643555,22.567033767700195
1758643841.7012231,1758643841.7025285,24.239063262939453,0.021696090698242188,0.0705718994140625,21.918535232543945,21.989107131958008,22.0491886138916,22.52507209777832
1758643841.7256134,1758643841.72691,24.19877052307129,0.016927719116210938,0.0705718994140625,21.939516067504883,22.010087966918945,22.055625915527344,22.518157958984375
1758643841.749996,1758643841.7512732,18.960237503051758,0.016450881958007812,0.07152557373046875,16.690492630004883,16.76201820373535,16.80779457092285,17.269611358642578
1758643841.7691026,1758643841.770404,24.085521697998047,0.015020370483398438,0.07104873657226562,21.78335189819336,21.854400634765625,21.898984909057617,22.33266830444336
1758643841.793328,1758643841.7946243,24.03116226196289,0.016450881958007812,0.07104873657226562,21.74544334411621,21.816492080688477,21.862268447875977,22.33433723449707
1758643841.8175006,1758643841.8188014,24.28722381591797,0.016450881958007812,0.07033348083496094,21.98314666748047,22.05348014831543,22.102832794189453,22.586345672607422
1758643841.8419292,1758643841.8432178,24.013519287109375,0.016450881958007812,0.07009506225585938,21.73328399658203,21.80337905883789,21.84915542602539,22.305011749267578
1758643841.8660862,1758643841.8673964,24.08456802368164,0.015497207641601562,0.07152557373046875,21.79431915283203,21.8658447265625,21.910429000854492,22.40443229675293
1758643841.890312,1758643841.8915873,25.57063102722168,0.017404556274414062,0.07033348083496094,23.29874038696289,23.36907386779785,23.41628074645996,23.87714385986328
1758643841.916028,1758643841.917322,24.0631103515625,0.01621246337890625,0.06985664367675781,21.773099899291992,21.84295654296875,21.888017654418945,22.348642349243164
1758643841.9402373,1758643841.941562,24.21402931213379,0.016927719116210938,0.07104873657226562,21.899938583374023,21.97098731994629,22.017717361450195,22.48668670654297
1758643841.9646003,1758643841.965881,24.423837661743164,0.016689300537109375,0.06914138793945312,22.13120460510254,22.200345993041992,22.246122360229492,22.71103858947754
1758643841.9891682,1758643841.9904575,24.199247360229492,0.01621246337890625,0.07009506225585938,21.92544937133789,21.99554443359375,22.04108238220215,22.509336471557617
1758643842.013508,1758643842.0148041,24.306535720825195,0.01621246337890625,0.07081031799316406,21.934032440185547,22.00484275817871,22.05038070678711,22.516489028930664
1758643842.0379577,1758643842.0392678,21.735429763793945,0.016689300537109375,0.07009506225585938,19.41680908203125,19.48690414428711,19.536495208740234,20.012855529785156
1758643842.0598354,1758643842.0611548,24.286270141601562,0.0171661376953125,0.072479248046875,21.962881088256836,22.03536033630371,22.081375122070312,22.571086883544922
1758643842.084265,1758643842.085582,24.130582809448242,0.016450881958007812,0.07081031799316406,21.825551986694336,21.8963623046875,21.945714950561523,22.419452667236328
1758643842.1085393,1758643842.1098673,24.379491806030273,0.016450881958007812,0.07152557373046875,22.05967903137207,22.13120460510254,22.177696228027344,22.675752639770508
1758643842.133023,1758643842.134358,24.324417114257812,0.015974044799804688,0.0705718994140625,22.03369140625,22.104263305664062,22.150039672851562,22.614240646362305
1758643842.1574886,1758643842.1588206,24.36661720275879,0.01621246337890625,0.0705718994140625,22.042512893676758,22.11308479309082,22.159337997436523,22.672414779663086
1758643842.1819973,1758643842.183286,24.227142333984375,0.015974044799804688,0.07009506225585938,21.953105926513672,22.02320098876953,22.068023681640625,22.52936363220215
1758643842.2063673,1758643842.207691,24.45054054260254,0.014543533325195312,0.07128715515136719,22.131681442260742,22.20296859741211,22.246837615966797,22.68385887145996
1758643842.230957,1758643842.2322416,19.17886734008789,0.016927719116210938,0.07128715515136719,16.87765121459961,16.948938369750977,16.994953155517578,17.458438873291016
1758643842.250278,1758643842.2515805,23.825407028198242,0.015974044799804688,0.07104873657226562,21.519899368286133,21.5909481048584,21.641016006469727,22.12071418762207
1758643842.2742465,1758643842.2755406,24.198055267333984,0.021696090698242188,0.07033348083496094,21.908044815063477,21.978378295898438,22.034168243408203,22.462844848632812
1758643842.2985961,1758643842.299894,24.171113967895508,0.016450881958007812,0.07104873657226562,21.878719329833984,21.94976806640625,21.995067596435547,22.45473861694336
1758643842.3229113,1758643842.3242526,24.128198623657227,0.016450881958007812,0.0705718994140625,21.79741859436035,21.867990493774414,21.913528442382812,22.404909133911133
1758643842.3471823,1758643842.3484905,24.015426635742188,0.015735626220703125,0.07534027099609375,21.7134952545166,21.788835525512695,21.834135055541992,22.289752960205078
1758643842.3713422,1758643842.3726518,25.365591049194336,0.02002716064453125,0.07009506225585938,23.05459976196289,23.12469482421875,23.18859100341797,23.65708351135254
1758643842.396852,1758643842.3981888,24.248838424682617,0.015497207641601562,0.07081031799316406,21.913766860961914,21.984577178955078,22.030115127563477,22.523880004882812
1758643842.4212475,1758643842.4225333,24.55306053161621,0.0247955322265625,0.07081031799316406,22.250890731811523,22.321701049804688,22.375106811523438,22.838830947875977
1758643842.4459429,1758643842.4472337,24.09052848815918,0.017881393432617188,0.06890296936035156,21.836519241333008,21.90542221069336,21.953344345092773,22.412538528442383
1758643842.470175,1758643842.4714665,24.24025535583496,0.015020370483398438,0.0782012939453125,21.953821182250977,22.03202247619629,22.07660675048828,22.51291275024414
1758643842.494565,1758643842.4959211,24.24001693725586,0.016689300537109375,0.07033348083496094,21.914958953857422,21.985292434692383,22.031545639038086,22.56464958190918
1758643842.518996,1758643842.5202856,21.73018455505371,0.016927719116210938,0.07009506225585938,19.441843032836914,19.511938095092773,19.558429718017578,20.017147064208984
1758643842.5408692,1758643842.5421598,24.111032485961914,0.0152587890625,0.06985664367675781,21.814823150634766,21.884679794311523,21.92997932434082,22.354602813720703
1758643842.5651233,1758643842.5664065,24.138450622558594,0.015735626220703125,0.07033348083496094,21.871566772460938,21.9419002532959,21.986722946166992,22.443294525146484
1758643842.5894043,1758643842.5907116,24.273395538330078,0.017404556274414062,0.07128715515136719,21.959543228149414,22.03083038330078,22.081613540649414,22.563934326171875
1758643842.61378,1758643842.6151054,24.276018142700195,0.015974044799804688,0.07033348083496094,21.953344345092773,22.023677825927734,22.06873893737793,22.5372314453125
1758643842.6381989,1758643842.6394873,24.367570877075195,0.016450881958007812,0.07843971252441406,22.15576171875,22.234201431274414,22.281169891357422,22.743701934814453
1758643842.6627612,1758643842.664041,24.19900894165039,0.015974044799804688,0.06937980651855469,21.918058395385742,21.987438201904297,22.032976150512695,22.490501403808594
1758643842.6871028,1758643842.6883948,24.294614791870117,0.014781951904296875,0.07128715515136719,22.011995315551758,22.083282470703125,22.127628326416016,22.56298065185547
1758643842.711544,1758643842.7128594,19.21844482421875,0.01621246337890625,0.06937980651855469,16.913652420043945,16.9830322265625,17.028331756591797,17.52018928527832
1758643842.7309058,1758643842.7322133,23.970603942871094,0.016927719116210938,0.06985664367675781,21.663188934326172,21.73304557800293,21.779537200927734,22.24254608154297
1758643842.7550187,1758643842.7563639,24.251461029052734,0.015735626220703125,0.06985664367675781,21.914005279541016,21.983861923217773,22.02916145324707,22.5222110748291
1758643842.7794118,1758643842.7807057,24.184703826904297,0.016689300537109375,0.07128715515136719,21.87037467956543,21.941661834716797,21.9879150390625,22.454500198364258
1758643842.8037422,1758643842.8050394,24.037599563598633,0.015974044799804688,0.06985664367675781,21.740198135375977,21.810054779052734,21.858692169189453,22.330284118652344
1758643842.8279223,1758643842.829201,24.246692657470703,0.016450881958007812,0.07128715515136719,21.967649459838867,22.038936614990234,22.084951400756836,22.54652976989746
1758643842.852311,1758643842.8536046,25.35390853881836,0.015974044799804688,0.07081031799316406,23.070096969604492,23.140907287597656,23.186445236206055,23.647069931030273
1758643842.8778112,1758643842.8791115,24.2617130279541,0.01621246337890625,0.06961822509765625,21.963834762573242,22.0334529876709,22.0797061920166,22.541046142578125
1758643842.9022171,1758643842.9035125,24.471044540405273,0.015974044799804688,0.07653236389160156,22.141218185424805,22.217750549316406,22.263050079345703,22.72772789001465
1758643842.9268298,1758643842.9281132,24.471521377563477,0.016450881958007812,0.07176399230957031,22.292613983154297,22.364377975463867,22.41063117980957,22.873401641845703
1758643842.9515445,1758643842.9528377,24.245023727416992,0.016927719116210938,0.06818771362304688,21.99578285217285,22.0639705657959,22.110939025878906,22.57704734802246
1758643842.9759824,1758643842.9772766,23.96702766418457,0.0171661376953125,0.07081031799316406,21.77262306213379,21.843433380126953,21.89040184020996,22.353649139404297
1758643843.0002158,1758643843.001502,21.880626678466797,0.01621246337890625,0.07653236389160156,19.598007202148438,19.67453956604004,19.72031593322754,20.177841186523438
1758643843.0222394,1758643843.0235531,24.15180206298828,0.0152587890625,0.07033348083496094,21.818876266479492,21.889209747314453,21.944522857666016,22.40443229675293
1758643843.0465353,1758643843.0478444,24.199962615966797,0.015735626220703125,0.07104873657226562,21.893978118896484,21.96502685546875,22.01104164123535,22.47762680053711
1758643843.0708776,1758643843.072167,24.18041229248047,0.016689300537109375,0.06914138793945312,21.96502685546875,22.034168243408203,22.079944610595703,22.5374698638916
1758643843.0951564,1758643843.0965102,24.367809295654297,0.014066696166992188,0.08106231689453125,22.023677825927734,22.104740142822266,22.14789390563965,22.597074508666992
1758643843.11967,1758643843.1209483,24.195194244384766,0.016450881958007812,0.06914138793945312,21.931171417236328,22.00031280517578,22.046327590942383,22.50385284423828
1758643843.1440089,1758643843.1453362,24.491071701049805,0.01621246337890625,0.07033348083496094,22.162914276123047,22.233247756958008,22.283077239990234,22.797822952270508
1758643843.168669,1758643843.1699588,24.074554443359375,0.016927719116210938,0.06985664367675781,21.879196166992188,21.949052810668945,21.994829177856445,22.454500198364258
1758643843.192987,1758643843.1942725,19.046306610107422,0.017404556274414062,0.06961822509765625,16.776561737060547,16.846179962158203,16.89291000366211,17.351150512695312
1758643843.2121744,1758643843.2134943,24.0628719329834,0.015735626220703125,0.07796287536621094,21.744966506958008,21.82292938232422,21.868467330932617,22.36342430114746
1758643843.2363782,1758643843.2376637,24.242877960205078,0.016450881958007812,0.06985664367675781,21.96478843688965,22.034645080566406,22.080421447753906,22.541046142578125
1758643843.2607641,1758643843.2620525,23.977279663085938,0.01621246337890625,0.07033348083496094,21.686077117919922,21.756410598754883,21.805286407470703,22.279739379882812
1758643843.2848852,1758643843.2862124,24.233341217041016,0.01621246337890625,0.07128715515136719,21.917343139648438,21.988630294799805,22.034645080566406,22.527456283569336
1758643843.3092601,1758643843.3105583,23.977041244506836,0.016689300537109375,0.07271766662597656,21.68440818786621,21.757125854492188,21.80337905883789,22.267580032348633
1758643843.3333786,1758643843.334704,25.46858787536621,0.017404556274414062,0.07104873657226562,23.124217987060547,23.195266723632812,23.242950439453125,23.743152618408203
1758643843.3589904,1758643843.3602827,24.199485778808594,0.016927719116210938,0.07033348083496094,21.90256118774414,21.9728946685791,22.019386291503906,22.48239517211914
1758643843.3833315,1758643843.3847623,24.363279342651367,0.017404556274414062,0.07128715515136719,21.94070816040039,22.011995315551758,22.059202194213867,22.64237403869629
1758643843.4078372,1758643843.4091325,24.42193031311035,0.016927719116210938,0.07104873657226562,22.136688232421875,22.20773696899414,22.254228591918945,22.713422775268555
1758643843.432401,1758643843.433734,24.47056770324707,0.016450881958007812,0.06985664367675781,22.14956283569336,22.219419479370117,22.265195846557617,22.76158332824707
1758643843.4570153,1758643843.4583015,24.155855178833008,0.016450881958007812,0.07128715515136719,21.872520446777344,21.94380760192871,21.990537643432617,22.444725036621094
1758643843.4813132,1758643843.4826124,22.314786911010742,0.016689300537109375,0.06985664367675781,20.006179809570312,20.07603645324707,20.125150680541992,20.607709884643555
1758643843.5037682,1758643843.5050611,23.898839950561523,0.016927719116210938,0.0705718994140625,21.648883819580078,21.71945571899414,21.76523208618164,22.228479385375977
1758643843.5278544,1758643843.5291524,24.125337600708008,0.016450881958007812,0.06914138793945312,21.929502487182617,21.99864387512207,22.04442024230957,22.50504493713379
1758643843.5522223,1758643843.553529,24.060964584350586,0.022649765014648438,0.07033348083496094,21.741867065429688,21.81220054626465,21.86441421508789,22.32074737548828
1758643843.5763855,1758643843.5777102,24.326086044311523,0.016927719116210938,0.06961822509765625,22.00937271118164,22.078990936279297,22.1254825592041,22.593259811401367
1758643843.600855,1758643843.602128,24.336814880371094,0.01621246337890625,0.07009506225585938,22.1254825592041,22.19557762145996,22.244691848754883,22.74298667907715
1758643843.6254392,1758643843.626751,24.20520782470703,0.017404556274414062,0.07128715515136719,21.851778030395508,21.923065185546875,21.969318389892578,22.437572479248047
1758643843.649748,1758643843.6510956,24.079561233520508,0.01621246337890625,0.06937980651855469,21.825790405273438,21.895170211791992,21.941184997558594,22.40586280822754
1758643843.674068,1758643843.6753569,19.017457962036133,0.016689300537109375,0.06914138793945312,16.736745834350586,16.80588722229004,16.85190200805664,17.308473587036133
1758643843.693229,1758643843.694557,24.116039276123047,0.01621246337890625,0.07104873657226562,21.796464920043945,21.86751365661621,21.912574768066406,22.420644760131836
1758643843.717488,1758643843.7187853,24.132490158081055,0.016927719116210938,0.07009506225585938,21.83222770690918,21.90232276916504,21.952152252197266,22.431373596191406
1758643843.7417648,1758643843.743078,24.09815788269043,0.016689300537109375,0.07152557373046875,21.79121971130371,21.86274528503418,21.909475326538086,22.373676300048828
1758643843.7660036,1758643843.7672827,24.065732955932617,0.016450881958007812,0.07104873657226562,21.78502082824707,21.856069564819336,21.902084350585938,22.360563278198242
1758643843.7902114,1758643843.791497,24.132728576660156,0.013828277587890625,0.07772445678710938,21.846294403076172,21.92401885986328,21.966934204101562,22.399425506591797
1758643843.8144865,1758643843.8157804,25.22897720336914,0.016927719116210938,0.07081031799316406,22.941112518310547,23.01192283630371,23.058176040649414,23.524761199951172
1758643843.8398557,1758643843.841186,24.333477020263672,0.017404556274414062,0.07176399230957031,22.03822135925293,22.1099853515625,22.156476974487305,22.643566131591797
1758643843.8643315,1758643843.8656592,24.39713478088379,0.016689300537109375,0.06985664367675781,22.112131118774414,22.181987762451172,22.228002548217773,22.725343704223633
1758643843.8888717,1758643843.8901744,24.418115615844727,0.01430511474609375,0.06937980651855469,22.13001251220703,22.199392318725586,22.242307662963867,22.663116455078125
1758643843.9134326,1758643843.9147286,24.33323860168457,0.016927719116210938,0.07104873657226562,22.019386291503906,22.090435028076172,22.13740348815918,22.604703903198242
1758643843.9379086,1758643843.9391916,24.25217628479004,0.01621246337890625,0.06961822509765625,21.948814392089844,22.0184326171875,22.068023681640625,22.5372314453125
1758643843.9623046,1758643843.963606,21.63863182067871,0.015974044799804688,0.07200241088867188,19.344329833984375,19.416332244873047,19.461631774902344,19.926071166992188
1758643843.9840865,1758643843.9853837,24.23548698425293,0.015974044799804688,0.0705718994140625,21.94690704345703,22.017478942871094,22.0639705657959,22.53246307373047
1758643844.0084643,1758643844.0097718,24.53160285949707,0.016927719116210938,0.07033348083496094,22.218942642211914,22.289276123046875,22.336959838867188,22.796630859375
1758643844.0331411,1758643844.0344553,24.00350570678711,0.0152587890625,0.07081031799316406,21.689891815185547,21.76070213317871,21.806001663208008,22.232770919799805
1758643844.057292,1758643844.0585897,24.16825294494629,0.016927719116210938,0.06985664367675781,21.85511589050293,21.924972534179688,21.987438201904297,22.459983825683594
1758643844.0816095,1758643844.0829082,24.33490753173828,0.016689300537109375,0.07009506225585938,22.046566009521484,22.116661071777344,22.162675857543945,22.622108459472656
1758643844.1060464,1758643844.107404,24.474620819091797,0.017404556274414062,0.07104873657226562,22.122859954833984,22.19390869140625,22.240877151489258,22.737503051757812
1758643844.1306803,1758643844.1319761,24.172067642211914,0.01621246337890625,0.07200241088867188,21.973133087158203,22.045135498046875,22.090435028076172,22.54939079284668
1758643844.1550932,1758643844.1563861,20.94101905822754,0.0171661376953125,0.07319450378417969,18.649816513061523,18.723011016845703,18.76974105834961,19.229650497436523
1758643844.1761773,1758643844.1774738,24.091005325317383,0.016689300537109375,0.07677078247070312,21.7893123626709,21.8660831451416,21.915912628173828,22.39084243774414
1758643844.2004092,1758643844.2017379,24.427413940429688,0.015974044799804688,0.07128715515136719,22.098302841186523,22.16958999633789,22.215604782104492,22.719621658325195
1758643844.2249773,1758643844.2262611,24.075984954833984,0.01621246337890625,0.06985664367675781,21.786928176879883,21.85678482055664,21.90256118774414,22.365570068359375
1758643844.249197,1758643844.250494,23.993968963623047,0.015735626220703125,0.0782012939453125,21.674633026123047,21.75283432006836,21.798133850097656,22.261619567871094
1758643844.2733364,1758643844.2746303,22.45306968688965,0.01621246337890625,0.06914138793945312,20.158052444458008,20.22719383239746,20.272493362426758,20.740985870361328
1758643844.2959354,1758643844.297268,24.713993072509766,0.016689300537109375,0.07081031799316406,22.42422103881836,22.495031356811523,22.544145584106445,23.057937622070312
1758643844.3208354,1758643844.3221247,24.274349212646484,0.016689300537109375,0.0705718994140625,22.088050842285156,22.15862274169922,22.205114364624023,22.66240119934082
1758643844.3453543,1758643844.3466697,24.31035041809082,0.015497207641601562,0.07009506225585938,21.99268341064453,22.06277847290039,22.107839584350586,22.550106048583984
1758643844.3698115,1758643844.371099,24.449825286865234,0.016689300537109375,0.07009506225585938,22.218704223632812,22.288799285888672,22.335290908813477,22.799968719482422
1758643844.3944478,1758643844.395745,24.057388305664062,0.01621246337890625,0.0705718994140625,21.872520446777344,21.943092346191406,21.98934555053711,22.451400756835938
1758643844.418754,1758643844.420061,24.164915084838867,0.016450881958007812,0.07128715515136719,21.963834762573242,22.03512191772461,22.081851959228516,22.559642791748047
1758643844.443159,1758643844.444479,21.50869369506836,0.017404556274414062,0.07557868957519531,19.18339729309082,19.258975982666016,19.30546760559082,19.802093505859375
1758643844.464809,1758643844.4660943,24.27983283996582,0.016689300537109375,0.07033348083496094,21.98028564453125,22.05061912536621,22.097110748291016,22.56035804748535
1758643844.4892404,1758643844.4905295,24.164915084838867,0.014066696166992188,0.07605552673339844,21.88420295715332,21.96025848388672,22.0034122467041,22.433042526245117
1758643844.5135558,1758643844.5148373,24.161577224731445,0.016450881958007812,0.07104873657226562,21.87657356262207,21.947622299194336,21.997451782226562,22.477149963378906
1758643844.5378604,1758643844.5391686,24.59549903869629,0.015974044799804688,0.07152557373046875,22.28236198425293,22.3538875579834,22.404909133911133,22.888660430908203
1758643844.5626042,1758643844.5638757,24.017333984375,0.01621246337890625,0.07319450378417969,21.75426483154297,21.82745933532715,21.87371253967285,22.333860397338867
1758643844.5867248,1758643844.5880687,24.25837516784668,0.015974044799804688,0.06937980651855469,21.916627883911133,21.986007690429688,22.031784057617188,22.48692512512207
1758643844.6111271,1758643844.6124299,24.341583251953125,0.015020370483398438,0.06961822509765625,22.060632705688477,22.130250930786133,22.174596786499023,22.5985050201416
1758643844.6356184,1758643844.6369128,19.077777862548828,0.016450881958007812,0.0705718994140625,16.8001651763916,16.870737075805664,16.916513442993164,17.388582229614258
1758643844.6547964,1758643844.6560984,24.029016494750977,0.0171661376953125,0.072479248046875,21.743297576904297,21.815776824951172,21.862268447875977,22.31764793395996
1758643844.67897,1758643844.6802945,24.2159366607666,0.016927719116210938,0.07176399230957031,21.901607513427734,21.973371505737305,22.020578384399414,22.510051727294922
1758643844.703327,1758643844.704615,24.277687072753906,0.016450881958007812,0.07176399230957031,21.99244499206543,22.064208984375,22.109270095825195,22.572994232177734
1758643844.727749,1758643844.7290208,23.94866943359375,0.015974044799804688,0.07033348083496094,21.627426147460938,21.6977596282959,21.747112274169922,22.235631942749023
1758643844.7518404,1758643844.7531126,23.972272872924805,0.016689300537109375,0.06961822509765625,21.81100845336914,21.880626678466797,21.926403045654297,22.37987518310547
1758643844.7760549,1758643844.7773354,25.171279907226562,0.016689300537109375,0.07104873657226562,22.909164428710938,22.980213165283203,23.026704788208008,23.479461669921875
1758643844.8013706,1758643844.802688,24.350881576538086,0.016689300537109375,0.07009506225585938,22.056102752685547,22.126197814941406,22.171974182128906,22.66407012939453
1758643844.825865,1758643844.827183,24.350404739379883,0.016450881958007812,0.07200241088867188,22.04442024230957,22.116422653198242,22.162199020385742,22.65191078186035
1758643844.8503578,1758643844.851663,24.250268936157227,0.016450881958007812,0.07152557373046875,21.93617820739746,22.00770378112793,22.05371856689453,22.508621215820312
1758643844.8747516,1758643844.8760235,24.097681045532227,0.016927719116210938,0.07009506225585938,21.936893463134766,22.006988525390625,22.054195404052734,22.508621215820312
1758643844.899089,1758643844.9003644,24.358034133911133,0.017404556274414062,0.06985664367675781,22.204875946044922,22.27473258972168,22.321224212646484,22.77350425720215
1758643844.9236922,1758643844.9249868,21.478652954101562,0.016927719116210938,0.07081031799316406,19.291162490844727,19.36197280883789,19.408226013183594,19.861221313476562
1758643844.945412,1758643844.9467058,24.178504943847656,0.0152587890625,0.06961822509765625,21.871089935302734,21.94070816040039,21.988630294799805,22.44257926940918
1758643844.9697337,1758643844.9710095,24.221181869506836,0.017881393432617188,0.07104873657226562,22.050142288208008,22.121191024780273,22.169828414916992,22.623062133789062
1758643844.994096,1758643844.9954462,24.15943145751953,0.01430511474609375,0.07128715515136719,21.924257278442383,21.99554443359375,22.039175033569336,22.48382568359375
1758643845.0184932,1758643845.0197704,24.019956588745117,0.016450881958007812,0.06866455078125,21.855592727661133,21.924257278442383,21.970033645629883,22.428512573242188
1758643845.0427604,1758643845.0440462,24.61719512939453,0.015735626220703125,0.0705718994140625,22.446155548095703,22.516727447509766,22.562265396118164,23.016691207885742
1758643845.0676265,1758643845.0689232,23.8039493560791,0.016689300537109375,0.07009506225585938,21.6214656829834,21.691560745239258,21.73757553100586,22.211790084838867
1758643845.0916805,1758643845.0929692,24.222612380981445,0.015974044799804688,0.07009506225585938,22.026538848876953,22.096633911132812,22.14193344116211,22.60422706604004
1758643845.1161513,1758643845.1174257,19.06585693359375,0.016450881958007812,0.0705718994140625,16.80278778076172,16.87335968017578,16.919374465942383,17.375469207763672
1758643845.135361,1758643845.1366842,24.10721778869629,0.016927719116210938,0.0705718994140625,21.805524826049805,21.876096725463867,21.923065185546875,22.42112159729004
1758643845.1595774,1758643845.1608884,24.164915084838867,0.01621246337890625,0.06961822509765625,21.82745933532715,21.897077560424805,21.946191787719727,22.422313690185547
1758643845.1838853,1758643845.1851861,24.09982681274414,0.01621246337890625,0.07081031799316406,21.811485290527344,21.882295608520508,21.928787231445312,22.38631248474121
1758643845.2081287,1758643845.2094085,24.195194244384766,0.016450881958007812,0.06985664367675781,21.931171417236328,22.001028060913086,22.047042846679688,22.5067138671875
1758643845.2324684,1758643845.2337654,23.902177810668945,0.016689300537109375,0.07033348083496094,21.72112464904785,21.791458129882812,21.83675765991211,22.292613983154297
1758643845.2566178,1758643845.2579114,25.218963623046875,0.016450881958007812,0.06842613220214844,23.033857345581055,23.102283477783203,23.147106170654297,23.602008819580078
1758643845.2820787,1758643845.2833807,24.287700653076172,0.016689300537109375,0.0705718994140625,22.0029354095459,22.07350730895996,22.119522094726562,22.574663162231445
1758643845.3065126,1758643845.3078027,24.214506149291992,0.017404556274414062,0.07128715515136719,22.027254104614258,22.098541259765625,22.145748138427734,22.612333297729492
1758643845.33097,1758643845.3322604,24.374961853027344,0.018358230590820312,0.07152557373046875,22.171974182128906,22.243499755859375,22.29619026184082,22.754192352294922
1758643845.3556037,1758643845.3568842,24.061203002929688,0.01621246337890625,0.06985664367675781,21.892786026000977,21.962642669677734,22.00794219970703,22.46713638305664
1758643845.3799064,1758643845.3811996,24.340391159057617,0.01621246337890625,0.0705718994140625,22.034406661987305,22.104978561401367,22.15433120727539,22.621870040893555
1758643845.4043903,1758643845.4057212,21.893978118896484,0.015974044799804688,0.07176399230957031,19.576311111450195,19.648075103759766,19.693374633789062,20.1873779296875
1758643845.426428,1758643845.427715,24.249792098999023,0.016927719116210938,0.07176399230957031,21.977901458740234,22.049665451049805,22.095441818237305,22.556304931640625
1758643845.4508212,1758643845.4520953,24.24931526184082,0.015974044799804688,0.07104873657226562,21.99387550354004,22.064924240112305,22.110462188720703,22.566556930541992
1758643845.475213,1758643845.4764934,24.201393127441406,0.0171661376953125,0.07724761962890625,21.935701370239258,22.012948989868164,22.064208984375,22.514820098876953
1758643845.4995615,1758643845.5008693,24.221181869506836,0.016450881958007812,0.06937980651855469,21.892786026000977,21.96216583251953,22.011518478393555,22.513866424560547
1758643845.5239275,1758643845.5252402,24.224042892456055,0.016450881958007812,0.07081031799316406,21.913528442382812,21.984338760375977,22.030353546142578,22.517681121826172
1758643845.5482945,1758643845.549574,24.20639991760254,0.016450881958007812,0.06985664367675781,21.955251693725586,22.025108337402344,22.07159996032715,22.52936363220215
1758643845.572667,1758643845.5739784,24.53327178955078,0.016927719116210938,0.07033348083496094,22.240638732910156,22.310972213745117,22.358179092407227,22.850513458251953
1758643845.5973427,1758643845.5986378,19.07181739807129,0.0171661376953125,0.07104873657226562,16.892194747924805,16.96324348449707,17.009258270263672,17.473459243774414
1758643845.616515,1758643845.6178591,24.13463592529297,0.0152587890625,0.07104873657226562,21.793842315673828,21.864891052246094,21.913528442382812,22.37725257873535
1758643845.6408033,1758643845.6421213,24.141788482666016,0.01621246337890625,0.07033348083496094,21.816015243530273,21.886348724365234,21.932601928710938,22.426128387451172
1758643845.665048,1758643845.6663136,23.96535873413086,0.014066696166992188,0.07176399230957031,21.802902221679688,21.874666213989258,21.918296813964844,22.3386287689209
1758643845.6891143,1758643845.6904533,24.25217628479004,0.013589859008789062,0.07224082946777344,21.929502487182617,22.00174331665039,22.04442024230957,22.486448287963867
1758643845.7134714,1758643845.7148576,24.209976196289062,0.01621246337890625,0.0705718994140625,21.83985710144043,21.910429000854492,21.956920623779297,22.460222244262695
1758643845.7378242,1758643845.7390935,25.279521942138672,0.016450881958007812,0.06985664367675781,23.0104923248291,23.08034896850586,23.130416870117188,23.598909378051758
1758643845.763247,1758643845.7645278,24.25360679626465,0.014066696166992188,0.07581710815429688,21.989822387695312,22.06563949584961,22.109270095825195,22.533893585205078
1758643845.7876644,1758643845.7889318,24.204492568969727,0.016927719116210938,0.06961822509765625,21.95119857788086,22.020816802978516,22.067785263061523,22.521257400512695
1758643845.8120134,1758643845.813286,24.402379989624023,0.015974044799804688,0.06914138793945312,22.151470184326172,22.220611572265625,22.271394729614258,22.72510528564453
1758643845.836576,1758643845.8378546,24.183988571166992,0.01811981201171875,0.07033348083496094,21.981239318847656,22.051572799682617,22.098779678344727,22.563695907592773
1758643845.861003,1758643845.8623247,24.077177047729492,0.0171661376953125,0.06937980651855469,21.7740535736084,21.843433380126953,21.89016342163086,22.340059280395508
1758643845.8852222,1758643845.886521,21.76070213317871,0.016450881958007812,0.07534027099609375,19.47760581970215,19.552946090698242,19.59824562072754,20.082712173461914
1758643845.9071264,1758643845.9084027,24.257421493530273,0.0171661376953125,0.07081031799316406,21.99244499206543,22.063255310058594,22.1099853515625,22.57704734802246
1758643845.9315271,1758643845.9328167,24.210214614868164,0.015974044799804688,0.07271766662597656,21.944046020507812,22.01676368713379,22.062301635742188,22.524595260620117
1758643845.955879,1758643845.9571772,24.181842803955078,0.017881393432617188,0.06890296936035156,21.93140983581543,22.00031280517578,22.05181121826172,22.513866424560547
1758643845.9802458,1758643845.9815145,24.28889274597168,0.016689300537109375,0.07677078247070312,22.028207778930664,22.104978561401367,22.151470184326172,22.606372833251953
1758643846.0046852,1758643846.0059943,24.242162704467773,0.016450881958007812,0.07081031799316406,21.944284439086914,22.015094757080078,22.06110954284668,22.547006607055664
1758643846.0290704,1758643846.0303407,24.269819259643555,0.016689300537109375,0.07224082946777344,22.103071212768555,22.175312042236328,22.227764129638672,22.679805755615234
1758643846.053592,1758643846.054872,24.24454689025879,0.016450881958007812,0.07104873657226562,22.060632705688477,22.131681442260742,22.177457809448242,22.639036178588867
1758643846.0780747,1758643846.0793743,19.413471221923828,0.0171661376953125,0.06842613220214844,17.128467559814453,17.1968936920166,17.243623733520508,17.69089698791504
1758643846.0976522,1758643846.0989377,23.686647415161133,0.01621246337890625,0.07295608520507812,21.510601043701172,21.58355712890625,21.635770797729492,22.089004516601562
1758643846.1215885,1758643846.122862,24.069547653198242,0.016689300537109375,0.07152557373046875,21.88897132873535,21.96049690246582,22.006750106811523,22.467374801635742
1758643846.1459,1758643846.1471822,24.09529685974121,0.016689300537109375,0.0705718994140625,21.867990493774414,21.938562393188477,21.983861923217773,22.432804107666016
1758643846.170184,1758643846.1714618,24.044275283813477,0.016689300537109375,0.07867813110351562,21.749496459960938,21.828174591064453,21.87800407409668,22.343873977661133
1758643846.1943328,1758643846.1956878,24.14226531982422,0.014781951904296875,0.07009506225585938,21.782875061035156,21.852970123291016,21.896839141845703,22.3238468170166
1758643846.2186244,1758643846.219902,25.300264358520508,0.0171661376953125,0.06890296936035156,23.12493324279785,23.193836212158203,23.240327835083008,23.692846298217773
1758643846.2441792,1758643846.2454677,24.173259735107422,0.016450881958007812,0.07653236389160156,21.99268341064453,22.069215774536133,22.115468978881836,22.57227897644043
1758643846.2685983,1758643846.2699218,24.162769317626953,0.016927719116210938,0.0705718994140625,21.940946578979492,22.011518478393555,22.057771682739258,22.555828094482422
1758643846.293004,1758643846.2942858,24.224281311035156,0.016450881958007812,0.06914138793945312,22.05348014831543,22.122621536254883,22.169113159179688,22.630929946899414
1758643846.3174722,1758643846.318772,24.281024932861328,0.015020370483398438,0.07128715515136719,22.091150283813477,22.162437438964844,22.20606803894043,22.63808250427246
1758643846.341994,1758643846.3432693,24.240970611572266,0.016689300537109375,0.06937980651855469,22.08113670349121,22.150516510009766,22.196531295776367,22.649765014648438
1758643846.3664742,1758643846.3677852,21.817684173583984,0.0171661376953125,0.06985664367675781,19.524574279785156,19.594430923461914,19.64092254638672,20.132064819335938
1758643846.388435,1758643846.3897276,24.2154598236084,0.015974044799804688,0.07152557373046875,21.917343139648438,21.988868713378906,22.03845977783203,22.515535354614258
1758643846.4127955,1758643846.41411,24.317264556884766,0.0171661376953125,0.06985664367675781,22.021770477294922,22.09162712097168,22.13907241821289,22.631168365478516
1758643846.4372556,1758643846.4385543,24.323463439941406,0.0171661376953125,0.06937980651855469,22.04275131225586,22.112131118774414,22.157669067382812,22.619247436523438
1758643846.4617224,1758643846.46299,23.954153060913086,0.017642974853515625,0.07009506225585938,21.796226501464844,21.866321563720703,21.91305160522461,22.367477416992188
1758643846.485918,1758643846.487192,24.380207061767578,0.017404556274414062,0.07033348083496094,22.120237350463867,22.190570831298828,22.238492965698242,22.69148826599121
1758643846.5104418,1758643846.511773,24.33013916015625,0.01621246337890625,0.07224082946777344,22.00150489807129,22.073745727539062,22.119998931884766,22.63355255126953
1758643846.5349169,1758643846.5361922,24.358034133911133,0.016689300537109375,0.07224082946777344,22.07159996032715,22.143840789794922,22.190093994140625,22.641658782958984
1758643846.559417,1758643846.5607078,19.07515525817871,0.0171661376953125,0.06985664367675781,16.783952713012695,16.853809356689453,16.900300979614258,17.360210418701172
1758643846.578654,1758643846.579936,24.0633487701416,0.016689300537109375,0.07033348083496094,21.79431915283203,21.864652633666992,21.910905838012695,22.365331649780273
1758643846.6028616,1758643846.604154,24.29819107055664,0.015974044799804688,0.07033348083496094,22.04585075378418,22.11618423461914,22.16482162475586,22.642850875854492
1758643846.6273448,1758643846.6286247,24.051904678344727,0.0171661376953125,0.06890296936035156,21.788597106933594,21.857500076293945,21.904468536376953,22.37534523010254
1758643846.651501,1758643846.6528404,23.879051208496094,0.017881393432617188,0.07152557373046875,21.65532112121582,21.72684669494629,21.775007247924805,22.248268127441406
1758643846.6756308,1758643846.676917,23.975372314453125,0.017404556274414062,0.0705718994140625,21.784305572509766,21.854877471923828,21.902084350585938,22.357463836669922
1758643846.6998484,1758643846.7011185,25.34961700439453,0.017404556274414062,0.06937980651855469,23.088455200195312,23.157835006713867,23.204803466796875,23.651123046875
1758643846.7253416,1758643846.7267427,24.367570877075195,0.01621246337890625,0.07152557373046875,22.00627326965332,22.07779884338379,22.12381362915039,22.6132869720459
1758643846.749853,1758643846.751153,24.325847625732422,0.016450881958007812,0.07128715515136719,22.044897079467773,22.11618423461914,22.162675857543945,22.646188735961914
1758643846.774323,1758643846.7756083,24.39570426940918,0.016927719116210938,0.07033348083496094,22.12071418762207,22.19104766845703,22.237300872802734,22.694826126098633
1758643846.7988644,1758643846.800149,24.287700653076172,0.0171661376953125,0.07081031799316406,22.001028060913086,22.07183837890625,22.118806838989258,22.572994232177734
1758643846.8232944,1758643846.8245647,24.339675903320312,0.017642974853515625,0.07104873657226562,22.037744522094727,22.108793258666992,22.15886116027832,22.63188362121582
1758643846.8477776,1758643846.8490644,21.79884910583496,0.015735626220703125,0.07081031799316406,19.626379013061523,19.697189331054688,19.742965698242188,20.199298858642578
1758643846.8698187,1758643846.8711014,24.075746536254883,0.016689300537109375,0.07176399230957031,21.795988082885742,21.867752075195312,21.914243698120117,22.370100021362305
1758643846.8940387,1758643846.895332,24.231672286987305,0.01430511474609375,0.07104873657226562,21.942853927612305,22.01390266418457,22.057294845581055,22.479534149169922
1758643846.9184194,1758643846.9197383,24.227380752563477,0.015974044799804688,0.07033348083496094,21.89779281616211,21.96812629699707,22.013187408447266,22.47333526611328
1758643846.9427898,1758643846.9440699,24.31344985961914,0.016927719116210938,0.07176399230957031,22.005558013916016,22.077322006225586,22.127151489257812,22.62282371520996
1758643846.9672482,1758643846.9685788,24.202823638916016,0.016927719116210938,0.07104873657226562,21.8508243560791,21.921873092651367,21.9728946685791,22.484779357910156
1758643846.9915984,1758643846.9928918,24.10411834716797,0.016927719116210938,0.06937980651855469,21.82316780090332,21.892547607421875,21.938323974609375,22.408723831176758
1758643847.015848,1758643847.0171242,24.30891990661621,0.0171661376953125,0.07033348083496094,22.038698196411133,22.109031677246094,22.1555233001709,22.60899543762207
1758643847.0402992,1758643847.0418243,19.1195011138916,0.018358230590820312,0.0705718994140625,16.705036163330078,16.77560806274414,16.823768615722656,17.513275146484375
1758643847.0596664,1758643847.0609996,23.99897575378418,0.0171661376953125,0.07009506225585938,21.662235260009766,21.732330322265625,21.782636642456055,22.28856086730957
1758643847.0838087,1758643847.0850885,23.97608757019043,0.016927719116210938,0.0705718994140625,21.806001663208008,21.87657356262207,21.922826766967773,22.377490997314453
1758643847.1080377,1758643847.1093173,24.402856826782227,0.01621246337890625,0.06985664367675781,22.238969802856445,22.308826446533203,22.3543643951416,22.806406021118164
1758643847.132688,1758643847.1340125,23.903608322143555,0.016450881958007812,0.07104873657226562,21.566390991210938,21.637439727783203,21.68440818786621,22.17388153076172
1758643847.1566978,1758643847.1580718,24.061918258666992,0.016450881958007812,0.07081031799316406,21.796464920043945,21.86727523803711,21.91305160522461,22.412776947021484
1758643847.1810033,1758643847.1822875,25.118350982666016,0.0171661376953125,0.07081031799316406,22.925615310668945,22.99642562866211,23.047208786010742,23.51856231689453
1758643847.206364,1758643847.2076912,24.44744110107422,0.017404556274414062,0.07081031799316406,22.166013717651367,22.23682403564453,22.283315658569336,22.777557373046875
1758643847.230956,1758643847.232237,24.260997772216797,0.0152587890625,0.06985664367675781,21.993637084960938,22.063493728637695,22.10712432861328,22.528648376464844
1758643847.255359,1758643847.256683,24.31464195251465,0.016450881958007812,0.07104873657226562,21.988391876220703,22.05944061279297,22.10521697998047,22.603988647460938
1758643847.279816,1758643847.2810783,24.280548095703125,0.016927719116210938,0.07009506225585938,22.118806838989258,22.188901901245117,22.23515510559082,22.68195152282715
1758643847.3043401,1758643847.305665,24.056673049926758,0.01430511474609375,0.07009506225585938,21.72684669494629,21.79694175720215,21.841049194335938,22.276639938354492
1758643847.3285396,1758643847.3298233,21.869659423828125,0.0171661376953125,0.07128715515136719,19.697189331054688,19.768476486206055,19.81496810913086,20.275592803955078
1758643847.350671,1758643847.3519962,24.127483367919922,0.016689300537109375,0.07081031799316406,21.819114685058594,21.889925003051758,21.935701370239258,22.423267364501953
1758643847.3749435,1758643847.37623,24.22165870666504,0.016927719116210938,0.07033348083496094,21.94070816040039,22.01104164123535,22.057294845581055,22.505521774291992
1758643847.3993084,1758643847.4006157,24.341583251953125,0.014781951904296875,0.07009506225585938,22.042274475097656,22.112369537353516,22.159337997436523,22.600412368774414
1758643847.4237952,1758643847.425097,24.194717407226562,0.01621246337890625,0.07033348083496094,21.912336349487305,21.982669830322266,22.02773094177246,22.48406410217285
1758643847.4481344,1758643847.4494493,24.379968643188477,0.01621246337890625,0.07104873657226562,22.124767303466797,22.195816040039062,22.242069244384766,22.732019424438477
1758643847.4727027,1758643847.473973,24.081707000732422,0.016450881958007812,0.06937980651855469,21.919727325439453,21.989107131958008,22.034645080566406,22.487401962280273
1758643847.4970262,1758643847.4983008,24.33943748474121,0.015497207641601562,0.07224082946777344,22.078752517700195,22.15099334716797,22.197246551513672,22.655248641967773
1758643847.521509,1758643847.5228584,18.986225128173828,0.01621246337890625,0.07176399230957031,16.75248146057129,16.82424545288086,16.87026023864746,17.38452911376953
1758643847.5407429,1758643847.5420556,24.249792098999023,0.016689300537109375,0.06985664367675781,21.948814392089844,22.0186710357666,22.065401077270508,22.55558967590332
1758643847.565139,1758643847.5664113,24.07526969909668,0.016927719116210938,0.07128715515136719,21.916866302490234,21.9881534576416,22.034883499145508,22.4912166595459
1758643847.5894544,1758643847.5907469,23.949384689331055,0.01621246337890625,0.06985664367675781,21.782875061035156,21.852731704711914,21.898508071899414,22.360801696777344
1758643847.6136646,1758643847.6149528,23.985862731933594,0.0171661376953125,0.07104873657226562,21.795272827148438,21.866321563720703,21.916627883911133,22.38154411315918
1758643847.6377518,1758643847.639084,24.6126651763916,0.014781951904296875,0.07081031799316406,22.248029708862305,22.31884002685547,22.362470626831055,22.80426025390625
1758643847.6625066,1758643847.6637983,24.88875389099121,0.016689300537109375,0.06961822509765625,22.720813751220703,22.79043197631836,22.835969924926758,23.294448852539062
1758643847.687639,1758643847.6889102,24.38521385192871,0.013589859008789062,0.07104873657226562,22.125959396362305,22.19700813293457,22.23992347717285,22.657394409179688
1758643847.7121663,1758643847.713435,24.3074893951416,0.016689300537109375,0.06961822509765625,22.070646286010742,22.1402645111084,22.186279296875,22.63808250427246
1758643847.7366214,1758643847.7378995,24.0781307220459,0.015735626220703125,0.07081031799316406,21.90995216369629,21.980762481689453,22.026538848876953,22.47333526611328
1758643847.7609408,1758643847.7622285,24.240732192993164,0.016450881958007812,0.09441375732421875,21.93737030029297,22.031784057617188,22.07779884338379,22.530794143676758
1758643847.785324,1758643847.786631,24.247169494628906,0.014543533325195312,0.0705718994140625,21.96049690246582,22.031068801879883,22.075414657592773,22.504329681396484
1758643847.809713,1758643847.810979,21.94046974182129,0.016450881958007812,0.07009506225585938,19.742488861083984,19.812583923339844,19.858121871948242,20.307302474975586
1758643847.8318384,1758643847.833102,24.178028106689453,0.016450881958007812,0.0705718994140625,22.01366424560547,22.08423614501953,22.132396697998047,22.59349822998047
1758643847.8562558,1758643847.857536,23.947477340698242,0.022172927856445312,0.06985664367675781,21.776914596557617,21.846771240234375,21.89803123474121,22.35245704650879
1758643847.880443,1758643847.8817325,24.4753360748291,0.016450881958007812,0.07033348083496094,22.192001342773438,22.2623348236084,22.3085880279541,22.768020629882812
1758643847.905062,1758643847.9063435,24.13201332092285,0.015735626220703125,0.07009506225585938,21.967411041259766,22.037506103515625,22.08423614501953,22.542953491210938
1758643847.929438,1758643847.9307222,24.227380752563477,0.015735626220703125,0.06985664367675781,21.968364715576172,22.03822135925293,22.083282470703125,22.54319190979004
1758643847.9538083,1758643847.9550989,24.274349212646484,0.0171661376953125,0.07033348083496094,22.0034122467041,22.073745727539062,22.120952606201172,22.568702697753906
1758643847.978226,1758643847.9795077,24.243831634521484,0.016927719116210938,0.07724761962890625,21.981000900268555,22.05824851989746,22.104740142822266,22.563695907592773
1758643848.002618,1758643848.0039008,19.16790008544922,0.01621246337890625,0.07033348083496094,16.908884048461914,16.979217529296875,17.024993896484375,17.480850219726562
1758643848.0219274,1758643848.0232108,23.992061614990234,0.016927719116210938,0.06937980651855469,21.718740463256836,21.78812026977539,21.834850311279297,22.285938262939453
1758643848.0460632,1758643848.0473688,24.329423904418945,0.014781951904296875,0.06961822509765625,21.98028564453125,22.049903869628906,22.09782600402832,22.569656372070312
1758643848.0705345,1758643848.0718133,24.02019500732422,0.016689300537109375,0.0705718994140625,21.763086318969727,21.83365821838379,21.878957748413086,22.339344024658203
1758643848.094697,1758643848.095995,24.2156982421875,0.016927719116210938,0.06842613220214844,21.928071975708008,21.996498107910156,22.042512893676758,22.52793312072754
1758643848.1190567,1758643848.1203454,23.96416664123535,0.016450881958007812,0.06914138793945312,21.683692932128906,21.75283432006836,21.798372268676758,22.24588394165039
1758643848.143165,1758643848.1444743,25.693178176879883,0.0171661376953125,0.0762939453125,23.392915725708008,23.469209671020508,23.51546287536621,24.00040626525879
1758643848.168962,1758643848.1702938,24.06024932861328,0.015974044799804688,0.0705718994140625,21.734952926635742,21.805524826049805,21.851062774658203,22.305727005004883
1758643848.1931648,1758643848.1944714,24.302959442138672,0.016927719116210938,0.07843971252441406,22.013187408447266,22.09162712097168,22.138118743896484,22.625207901000977
1758643848.2176127,1758643848.2188754,24.31964874267578,0.016927719116210938,0.07033348083496094,22.111177444458008,22.18151092529297,22.227764129638672,22.686481475830078
1758643848.242115,1758643848.243392,24.246931076049805,0.016689300537109375,0.06985664367675781,22.087574005126953,22.15743064880371,22.203922271728516,22.65763282775879
1758643848.2666054,1758643848.2679183,24.190425872802734,0.016689300537109375,0.072479248046875,21.880149841308594,21.95262908935547,22.002220153808594,22.508859634399414
1758643848.2909381,1758643848.2922428,21.964550018310547,0.015974044799804688,0.07081031799316406,19.677400588989258,19.748210906982422,19.79351043701172,20.27273178100586
1758643848.3130434,1758643848.3143256,24.224519729614258,0.015735626220703125,0.07200241088867188,21.965742111206055,22.037744522094727,22.083044052124023,22.53556251525879
1758643848.3374126,1758643848.3386943,24.05714988708496,0.016450881958007812,0.07009506225585938,21.894216537475586,21.964311599731445,22.010087966918945,22.47166633605957
1758643848.36172,1758643848.3630598,24.184226989746094,0.017881393432617188,0.07033348083496094,21.896839141845703,21.967172622680664,22.01366424560547,22.521018981933594
1758643848.3860896,1758643848.3873692,24.231910705566406,0.016689300537109375,0.07009506225585938,22.051572799682617,22.121667861938477,22.171974182128906,22.648096084594727
1758643848.4105694,1758643848.4118607,24.17731285095215,0.014066696166992188,0.07200241088867188,21.905183792114258,21.97718620300293,22.020816802978516,22.440671920776367
1758643848.4348896,1758643848.4361522,24.23238754272461,0.0171661376953125,0.07081031799316406,22.038698196411133,22.109508514404297,22.15576171875,22.61185646057129
1758643848.459362,1758643848.4606829,24.270296096801758,0.015974044799804688,0.07081031799316406,21.96645736694336,22.037267684936523,22.083759307861328,22.57680892944336
1758643848.483775,1758643848.485091,18.92995834350586,0.016450881958007812,0.07224082946777344,16.72840118408203,16.800642013549805,16.8459415435791,17.330169677734375
1758643848.5029438,1758643848.5042295,24.072647094726562,0.01621246337890625,0.07200241088867188,21.88587188720703,21.957874298095703,22.007226943969727,22.473573684692383
1758643848.5272532,1758643848.5285406,24.10101890563965,0.022649765014648438,0.06937980651855469,21.817684173583984,21.88706398010254,21.93903923034668,22.375822067260742
1758643848.5514953,1758643848.5527694,24.123668670654297,0.016927719116210938,0.0705718994140625,21.95906639099121,22.029638290405273,22.076129913330078,22.536039352416992
1758643848.5757604,1758643848.5770977,23.991823196411133,0.014066696166992188,0.07176399230957031,21.765708923339844,21.837472915649414,21.880626678466797,22.315025329589844
1758643848.5999992,1758643848.6012661,23.952722549438477,0.0171661376953125,0.07152557373046875,21.785736083984375,21.857261657714844,21.903514862060547,22.35269546508789
1758643848.6241915,1758643848.6254847,25.42853355407715,0.014066696166992188,0.07891654968261719,23.137807846069336,23.216724395751953,23.264169692993164,23.69856834411621
1758643848.649723,1758643848.6510687,24.28293228149414,0.016927719116210938,0.07033348083496094,22.047758102416992,22.118091583251953,22.16362953186035,22.65334129333496
1758643848.6742465,1758643848.6755235,24.380922317504883,0.016689300537109375,0.07462501525878906,22.212982177734375,22.287607192993164,22.333621978759766,22.7816104888916
1758643848.6988702,1758643848.7001545,24.064064025878906,0.01621246337890625,0.0705718994140625,21.89159393310547,21.96216583251953,22.00770378112793,22.4609375
1758643848.7231743,1758643848.724499,24.2617130279541,0.016450881958007812,0.07748603820800781,22.040605545043945,22.118091583251953,22.16362953186035,22.645950317382812
1758643848.7476833,1758643848.748985,24.344205856323242,0.016450881958007812,0.06914138793945312,22.153854370117188,22.22299575805664,22.269487380981445,22.742033004760742
1758643848.7721708,1758643848.7735004,22.043943405151367,0.013589859008789062,0.07963180541992188,19.729137420654297,19.80876922607422,19.8514461517334,20.279645919799805
1758643848.7943587,1758643848.7956548,24.141311645507812,0.017642974853515625,0.07033348083496094,21.869421005249023,21.939754486083984,21.98648452758789,22.4456787109375
1758643848.8186624,1758643848.8199368,24.067163467407227,0.017404556274414062,0.07152557373046875,21.89159393310547,21.963119506835938,22.008657455444336,22.459030151367188
1758643848.8428686,1758643848.8442094,24.472951889038086,0.01430511474609375,0.07128715515136719,22.10712432861328,22.17841148376465,22.225141525268555,22.67909049987793
1758643848.8674862,1758643848.8687677,23.98681640625,0.017404556274414062,0.0705718994140625,21.817922592163086,21.88849449157715,21.93474769592285,22.39203453063965
1758643848.8917239,1758643848.8930411,24.404287338256836,0.0171661376953125,0.0705718994140625,22.131681442260742,22.202253341674805,22.248268127441406,22.736310958862305
1758643848.916318,1758643848.9175992,24.212121963500977,0.01811981201171875,0.06961822509765625,21.956682205200195,22.02630043029785,22.07350730895996,22.528886795043945
