Timestamp,ArrivalTime,TotalTime(ms),WaitTime(ms),DecodeTime(ms),InferTime(ms),ServerComputeTime(ms),TotalServer(ms),Total
1759168922.111245,1759168922.36466,366.3952350616455,0.2684593200683594,0.06747245788574219,31.467914581298828,31.53538703918457,34.62076187133789,176.3763427734375
1759168922.481669,1759168922.5733597,207.99756050109863,0.3619194030761719,0.06914138793945312,26.937007904052734,27.006149291992188,27.87017822265625,105.43179512023926
1759168922.6898947,1759168922.8044386,224.52187538146973,0.5702972412109375,0.06723403930664062,22.160768508911133,22.228002548217773,23.706912994384766,139.64605331420898
1759168922.914589,1759168923.0304637,205.98936080932617,0.6372928619384766,0.06747245788574219,20.481348037719727,20.54882049560547,23.404836654663086,138.15665245056152
1759168923.1207213,1759168923.2573798,225.33440589904785,1.5540122985839844,0.06651878356933594,20.29895782470703,20.365476608276367,22.39060401916504,135.6027126312256
1759168923.350635,1759168923.4861352,245.61142921447754,0.48041343688964844,0.0667572021484375,23.073673248291016,23.140430450439453,25.23064613342285,139.5699977874756
1759168923.596393,1759168923.7094984,184.190034866333,1.0385513305664062,0.06556510925292969,19.91724967956543,19.98281478881836,23.18120002746582,136.05928421020508
1759168923.7848897,1759168923.9353116,222.74231910705566,2.026796340942383,0.06413459777832031,20.06816864013672,20.13230323791504,23.965835571289062,136.81435585021973
1759168924.0077922,1759168924.1607482,224.84159469604492,1.7418861389160156,0.07176399230957031,20.49708366394043,20.56884765625,24.25694465637207,137.04252243041992
1759168924.2327917,1759168924.3854275,249.4370937347412,2.0720958709716797,0.07200241088867188,20.070314407348633,20.142316818237305,23.2083797454834,157.4418544769287
1759168924.482391,1759168924.6160727,226.18532180786133,2.334117889404297,0.06413459777832031,20.179033279418945,20.243167877197266,24.381399154663086,156.31389617919922
1759168924.7135897,1759168924.8421576,220.83735466003418,0.8547306060791016,0.06341934204101562,21.532297134399414,21.59571647644043,24.2462158203125,155.3173065185547
1759168924.9366364,1759168925.0699382,245.26619911193848,0.5900859832763672,0.06365776062011719,21.369218826293945,21.432876586914062,22.99213409423828,154.2661190032959
1759168925.182001,1759168925.2953568,224.57456588745117,0.5602836608886719,0.062465667724609375,21.404743194580078,21.467208862304688,23.00119400024414,154.39176559448242
1759168925.4070663,1759168925.523415,209.5654010772705,1.1115074157714844,0.06389617919921875,21.080970764160156,21.144866943359375,23.358821868896484,137.76421546936035
1759168925.6167774,1759168925.7491002,223.10543060302734,1.9507408142089844,0.06508827209472656,19.936800003051758,20.001888275146484,22.715091705322266,136.47747039794922
1759168925.8400242,1759168925.9737554,183.04681777954102,1.6798973083496094,0.07176399230957031,20.27583122253418,20.34759521484375,23.024797439575195,137.2356414794922
1759168926.0295897,1759168926.1997712,260.9748840332031,2.0172595977783203,0.06461143493652344,20.056724548339844,20.121335983276367,24.11484718322754,135.56742668151855
1759168926.290705,1759168926.4263167,231.92882537841797,1.6627311706542969,0.06866455078125,20.360708236694336,20.429372787475586,23.778915405273438,138.26298713684082
1759168926.523088,1759168926.6529577,240.5416965484619,0.8962154388427734,0.06723403930664062,22.797107696533203,22.864341735839844,24.59239959716797,136.31558418273926
1759168926.763728,1759168926.8765912,183.9883327484131,1.0223388671875,0.06341934204101562,19.93536949157715,19.998788833618164,23.148775100708008,135.64229011535645
1759168926.9516363,1759168927.1045637,241.8978214263916,0.5030632019042969,0.06413459777832031,21.33488655090332,21.39902114868164,22.58753776550293,135.300874710083
1759168927.193678,1759168927.329968,226.95374488830566,0.6392002105712891,0.0629425048828125,21.117448806762695,21.180391311645508,22.652387619018555,135.69211959838867
1759168927.4255877,1759168927.556773,238.82102966308594,0.7424354553222656,0.06866455078125,20.000696182250977,20.069360733032227,21.571636199951172,113.40069770812988
1759168927.6645665,1759168927.7791727,205.66177368164062,1.0766983032226562,0.06461143493652344,21.172285079956055,21.236896514892578,23.97012710571289,137.96186447143555
1759168927.8703709,1759168928.0024033,203.34243774414062,2.0236968994140625,0.06580352783203125,20.147085189819336,20.212888717651367,24.2767333984375,135.73694229125977
1759168928.0738547,1759168928.231766,233.0000400543213,0.6287097930908203,0.06771087646484375,20.161867141723633,20.229578018188477,21.8355655670166,117.59710311889648
1759168928.307035,1759168928.4561365,221.25816345214844,0.7035732269287109,0.06318092346191406,21.148681640625,21.211862564086914,22.564172744750977,155.63249588012695
1759168928.5322468,1759168928.659676,221.4360237121582,0.4565715789794922,0.06723403930664062,23.37193489074707,23.43916893005371,25.568008422851562,135.57720184326172
1759168928.7538557,1759168928.8878083,224.44438934326172,1.0142326354980469,0.06866455078125,21.129846572875977,21.198511123657227,24.021387100219727,137.07232475280762
1759168928.9784455,1759168929.1125126,208.1923484802246,1.0449886322021484,0.06556510925292969,20.488262176513672,20.5538272857666,22.650480270385742,136.32798194885254
1759168929.18674,1759168929.3408446,265.8257484436035,0.9636878967285156,0.06842613220214844,20.96867561340332,21.03710174560547,22.613048553466797,158.90741348266602
1759168929.452711,1759168929.5679226,205.49869537353516,2.0928382873535156,0.064849853515625,20.06840705871582,20.133256912231445,24.248123168945312,135.3433132171631
1759168929.6583645,1759168929.7949443,208.48965644836426,1.4629364013671875,0.06437301635742188,19.913196563720703,19.977569580078125,22.106170654296875,116.26601219177246
1759168929.8716047,1759168930.0414052,240.21220207214355,1.9786357879638672,0.06628036499023438,20.127296447753906,20.19357681274414,23.039579391479492,137.4373435974121
1759168930.1119776,1759168930.2649999,224.99418258666992,0.8387565612792969,0.06365776062011719,21.480321884155273,21.54397964477539,24.232864379882812,156.52990341186523
1759168930.3396318,1759168930.4910803,243.70861053466797,1.9764900207519531,0.06628036499023438,20.099639892578125,20.16592025756836,23.963451385498047,155.7762622833252
1759168930.583484,1759168930.7187068,228.37042808532715,1.7309188842773438,0.07224082946777344,20.172119140625,20.244359970092773,23.08964729309082,156.40640258789062
1759168930.815916,1759168930.946132,219.43402290344238,0.7975101470947266,0.06437301635742188,20.033597946166992,20.097970962524414,22.668123245239258,134.74535942077637
1759168931.0354915,1759168931.173113,228.19972038269043,0.3676414489746094,0.07009506225585938,21.414756774902344,21.484851837158203,22.536039352416992,135.73384284973145
1759168931.2676432,1759168931.3975506,240.67163467407227,0.9412765502929688,0.07295608520507812,22.8731632232666,22.94611930847168,25.751352310180664,135.47611236572266
1759168931.5084598,1759168931.622282,187.17479705810547,1.0344982147216797,0.06890296936035156,20.045995712280273,20.114898681640625,22.04585075378418,114.21060562133789
1759168931.6957803,1759168931.850939,225.97122192382812,0.926971435546875,0.06461143493652344,20.05290985107422,20.117521286010742,21.96669578552246,134.98330116271973
1759168931.9226327,1759168932.0779526,252.81071662902832,0.8525848388671875,0.06437301635742188,21.22640609741211,21.29077911376953,23.000240325927734,142.76933670043945
1759168932.1755574,1759168932.311184,246.3092803955078,1.9271373748779297,0.06747245788574219,20.037412643432617,20.10488510131836,22.700786590576172,156.32319450378418
1759168932.422007,1759168932.5383792,205.46913146972656,0.8521080017089844,0.06437301635742188,20.000696182250977,20.0650691986084,22.79067039489746,135.49184799194336
1759168932.6279168,1759168932.7643673,228.00278663635254,1.6541481018066406,0.06413459777832031,20.22075653076172,20.28489112854004,22.907018661499023,136.00969314575195
1759168932.8560624,1759168932.9911952,224.20477867126465,0.5369186401367188,0.06699562072753906,21.370410919189453,21.437406539916992,23.07868003845215,136.14630699157715
1759168933.0804117,1759168933.231853,270.69902420043945,1.4595985412597656,0.06914138793945312,30.260562896728516,30.32970428466797,32.49239921569824,202.01468467712402
1759168933.3565269,1759168933.4895937,241.21642112731934,1.0738372802734375,0.06389617919921875,20.06077766418457,20.12467384338379,22.883892059326172,113.96169662475586
1759168933.5978875,1759168933.7115238,205.74259757995605,1.989603042602539,0.06508827209472656,20.114421844482422,20.17951011657715,22.947311401367188,136.90423965454102
1759168933.8037744,1759168933.9368577,223.96159172058105,0.8704662322998047,0.06699562072753906,21.65532112121582,21.72231674194336,24.866342544555664,138.72671127319336
1759168934.0278833,1759168934.1620326,204.88762855529785,1.0457038879394531,0.06461143493652344,20.067930221557617,20.13254165649414,23.02074432373047,138.63325119018555
1759168934.2328684,1759168934.3876395,227.98585891723633,0.9636878967285156,0.06413459777832031,20.045042037963867,20.109176635742188,21.95262908935547,136.41786575317383
1759168934.4646664,1759168934.614649,242.9659366607666,1.7309188842773438,0.06461143493652344,20.481586456298828,20.54619789123535,23.16570281982422,135.84613800048828
1759168934.7077758,1759168934.8402855,222.8224277496338,0.9703636169433594,0.06437301635742188,21.18849754333496,21.252870559692383,23.908138275146484,136.22570037841797
1759168934.9307413,1759168935.0660322,225.80862045288086,2.2666454315185547,0.06556510925292969,20.0502872467041,20.11585235595703,24.140357971191406,136.7185115814209
1759168935.1566916,1759168935.293303,225.8436679840088,0.8566379547119141,0.06389617919921875,20.19023895263672,20.254135131835938,23.035287857055664,137.04228401184082
1759168935.382678,1759168935.519514,232.00464248657227,1.6694068908691406,0.064849853515625,20.19524574279785,20.260095596313477,22.875308990478516,136.14630699157715
1759168935.6150723,1759168935.745547,239.6228313446045,1.4629364013671875,0.06532669067382812,20.534515380859375,20.599842071533203,22.72820472717285,135.50567626953125
1759168935.8548355,1759168935.9669926,184.0965747833252,0.92315673828125,0.06365776062011719,21.514892578125,21.578550338745117,24.268150329589844,135.36429405212402
1759168936.0390751,1759168936.1956067,248.7015724182129,1.7864704132080078,0.06437301635742188,20.250797271728516,20.315170288085938,23.041963577270508,137.71343231201172
1759168936.2879603,1759168936.4217834,224.84159469604492,1.7750263214111328,0.06437301635742188,20.218372344970703,20.282745361328125,23.070335388183594,136.26480102539062
1759168936.5129442,1759168936.6477377,225.8760929107666,1.0712146759033203,0.06556510925292969,21.531343460083008,21.596908569335938,23.38409423828125,136.22546195983887
1759168936.7389183,1759168936.8738296,225.9047031402588,0.9911060333251953,0.06508827209472656,21.2094783782959,21.274566650390625,23.145437240600586,136.21783256530762
1759168936.9649627,1759168937.100062,225.97241401672363,0.8373260498046875,0.06389617919921875,21.345138549804688,21.409034729003906,24.017333984375,136.0173225402832
1759168937.1910322,1759168937.3259277,225.39687156677246,1.7213821411132812,0.06461143493652344,20.391464233398438,20.45607566833496,24.064302444458008,157.14502334594727
1759168937.4165983,1759168937.5533433,226.52077674865723,0.8561611175537109,0.06532669067382812,20.03026008605957,20.0955867767334,21.85654640197754,136.0936164855957
1759168937.6432593,1759168937.7790222,225.80385208129883,0.9980201721191406,0.06389617919921875,20.101308822631836,20.165205001831055,22.106647491455078,136.15870475769043
1759168937.869205,1759168938.0051403,228.71041297912598,0.8676052093505859,0.064849853515625,20.141124725341797,20.205974578857422,23.11849594116211,136.19303703308105
1759168938.0980587,1759168938.2086313,220.1075553894043,0.5025863647460938,0.06794929504394531,23.178815841674805,23.24676513671875,24.581193923950195,115.15641212463379
1759168938.3219197,1759168938.4332561,221.79532051086426,0.6437301635742188,0.06651878356933594,22.957563400268555,23.02408218383789,25.5281925201416,136.72566413879395
1759168938.5438595,1759168938.6573524,184.0527057647705,1.0182857513427734,0.06437301635742188,20.017147064208984,20.081520080566406,22.105693817138672,135.27441024780273
1759168938.728057,1759168938.884319,246.7808723449707,1.9571781158447266,0.06437301635742188,20.136594772338867,20.20096778869629,22.90654182434082,136.4743709564209
1759168938.974983,1759168939.1113,205.7638168334961,0.8378028869628906,0.0629425048828125,20.04837989807129,20.1113224029541,21.69346809387207,117.1724796295166
1759168939.1808448,1759168939.336704,226.91679000854492,1.8286705017089844,0.06365776062011719,20.526647567749023,20.59030532836914,24.24001693725586,137.52198219299316
1759168939.4079092,1759168939.562317,225.3708839416504,1.8415451049804688,0.06461143493652344,20.532846450805664,20.597457885742188,23.41604232788086,137.33410835266113
1759168939.6334226,1759168939.7881658,225.28076171875,1.9524097442626953,0.06389617919921875,20.191669464111328,20.255565643310547,23.135662078857422,136.1532211303711
1759168939.8625906,1759168939.992712,239.67623710632324,0.4475116729736328,0.06794929504394531,21.913528442382812,21.981477737426758,24.187326431274414,136.8396282196045
1759168940.1031055,1759168940.2165637,224.5945930480957,0.7967948913574219,0.06699562072753906,23.52619171142578,23.59318733215332,26.19147300720215,137.08758354187012
1759168940.3278108,1759168940.4408512,183.92467498779297,1.0118484497070312,0.06413459777832031,19.991636276245117,20.055770874023438,22.266626358032227,135.14304161071777
1759168940.511879,1759168940.6674411,249.9711513519287,1.5447139739990234,0.06389617919921875,20.383119583129883,20.4470157623291,23.756742477416992,156.4810276031494
1759168940.7705896,1759168940.9168515,236.06204986572266,0.9613037109375,0.06341934204101562,20.110130310058594,20.17354965209961,22.914409637451172,135.99181175231934
1759168941.0067952,1759168941.1410708,225.05807876586914,1.0800361633300781,0.06461143493652344,21.218061447143555,21.282672882080078,24.120569229125977,136.89804077148438
1759168941.2319987,1759168941.3667884,225.4619598388672,0.7791519165039062,0.06389617919921875,21.47841453552246,21.54231071472168,24.142742156982422,137.1786594390869
1759168941.4606676,1759168941.5912282,222.03636169433594,0.6532669067382812,0.06747245788574219,22.669076919555664,22.736549377441406,25.03347396850586,136.96718215942383
1759168941.6856372,1759168941.8166769,224.99394416809082,1.9538402557373047,0.06532669067382812,20.235538482666016,20.300865173339844,24.128198623657227,155.58981895446777
1759168941.9107761,1759168942.0442386,205.89375495910645,1.7011165618896484,0.064849853515625,20.2484130859375,20.313262939453125,23.01192283630371,137.223482131958
1759168942.121588,1759168942.273062,260.8203887939453,0.8473396301269531,0.06437301635742188,21.275997161865234,21.340370178222656,22.856712341308594,136.19017601013184
1759168942.3825614,1759168942.494842,184.04102325439453,1.8076896667480469,0.06604194641113281,20.636320114135742,20.702362060546875,24.230003356933594,135.8199119567871
1759168942.5667453,1759168942.72245,245.5148696899414,0.5536079406738281,0.0629425048828125,21.3472843170166,21.410226821899414,22.953510284423828,156.1567783355713
1759168942.8188286,1759168942.9500191,241.14751815795898,0.8931159973144531,0.06461143493652344,20.087718963623047,20.15233039855957,22.97687530517578,134.40656661987305
1759168943.060116,1759168943.1744587,205.47056198120117,1.6603469848632812,0.06556510925292969,20.50185203552246,20.56741714477539,23.210525512695312,136.60550117492676
1759168943.2657292,1759168943.4031143,227.00238227844238,0.8814334869384766,0.06365776062011719,20.055294036865234,20.11895179748535,21.899938583374023,136.15059852600098
1759168943.4928734,1759168943.6288502,227.76174545288086,0.8575916290283203,0.06389617919921875,19.98305320739746,20.04694938659668,23.086071014404297,135.728120803833
1759168943.7207322,1759168943.8551896,227.38170623779297,0.7600784301757812,0.06365776062011719,21.318435668945312,21.38209342956543,23.083209991455078,136.22021675109863
1759168943.9516313,1759168944.0813851,218.7960147857666,0.3829002380371094,0.06365776062011719,21.571636199951172,21.63529396057129,22.580623626708984,135.94508171081543
1759168944.1785955,1759168944.3072417,240.68093299865723,0.7686614990234375,0.06723403930664062,23.236513137817383,23.303747177124023,24.592876434326172,136.25288009643555
1759168944.4275906,1759168944.5585766,240.33737182617188,1.8503665924072266,0.06413459777832031,20.05791664123535,20.122051239013672,22.567272186279297,134.7978115081787
1759168944.6680725,1759168944.7843246,225.81076622009277,0.7505416870117188,0.06389617919921875,21.29054069519043,21.35443687438965,22.733688354492188,136.0023021697998
1759168944.89403,1759168945.0081942,185.09387969970703,2.035856246948242,0.06365776062011719,20.13564109802246,20.199298858642578,24.181365966796875,118.3924674987793
1759168945.0792668,1759168945.2341359,245.8486557006836,1.9271373748779297,0.06365776062011719,20.023107528686523,20.08676528930664,22.561311721801758,138.16452026367188
1759168945.3278797,1759168945.4594204,222.07260131835938,0.8432865142822266,0.06914138793945312,22.86219596862793,22.931337356567383,24.798870086669922,134.88459587097168
1759168945.5503647,1759168945.6849759,228.55830192565918,1.6322135925292969,0.06723403930664062,20.397663116455078,20.46489715576172,23.98371696472168,155.7316780090332
1759168945.779066,1759168945.9115348,242.09976196289062,0.4341602325439453,0.06771087646484375,21.724700927734375,21.79241180419922,23.94866943359375,135.2837085723877
1759168946.0220146,1759168946.137377,224.3494987487793,0.41604042053222656,0.06771087646484375,21.70252799987793,21.770238876342773,23.89049530029297,136.77096366882324
1759168946.2465205,1759168946.3608246,204.7419548034668,0.7953643798828125,0.06842613220214844,21.454811096191406,21.523237228393555,24.120092391967773,136.51704788208008
1759168946.4514089,1759168946.5857127,225.38423538208008,0.9131431579589844,0.06437301635742188,19.948482513427734,20.012855529785156,23.03314208984375,135.85329055786133
1759168946.6796346,1759168946.8109405,225.22425651550293,0.5326271057128906,0.06961822509765625,21.222352981567383,21.29197120666504,22.835969924926758,155.66420555114746
1759168946.905052,1759168947.036899,242.97857284545898,1.5981197357177734,0.07152557373046875,20.387649536132812,20.45917510986328,23.819923400878906,155.88784217834473
1759168947.1508737,1759168947.2635908,222.29409217834473,0.5092620849609375,0.0667572021484375,21.88849449157715,21.955251693725586,23.214340209960938,114.5181655883789
1759168947.3733087,1759168947.4887636,204.71763610839844,0.9245872497558594,0.06771087646484375,20.10631561279297,20.174026489257812,22.11761474609375,138.49759101867676
1759168947.578469,1759168947.7130458,228.20305824279785,0.6463527679443359,0.06723403930664062,21.600008010864258,21.6672420501709,24.396896362304688,135.9689235687256
1759168947.8067703,1759168947.939484,243.865966796875,0.7846355438232422,0.06580352783203125,21.396636962890625,21.462440490722656,23.950815200805664,156.4493179321289
1759168948.0507774,1759168948.163856,205.85894584655762,0.9341239929199219,0.06365776062011719,20.071983337402344,20.13564109802246,22.942066192626953,136.3811492919922
1759168948.2606297,1759168948.3892677,201.0025978088379,1.7521381378173828,0.06413459777832031,20.21050453186035,20.274639129638672,23.000240325927734,116.05978012084961
1759168948.461781,1759168948.6154814,244.09103393554688,1.8491744995117188,0.06556510925292969,20.182132720947266,20.247697830200195,22.661924362182617,137.87198066711426
1759168948.7059689,1759168948.8407848,226.60303115844727,0.6206035614013672,0.06413459777832031,21.41571044921875,21.47984504699707,23.096561431884766,155.8685302734375
1759168948.9360888,1759168949.0679061,223.54888916015625,1.4834403991699219,0.06818771362304688,20.553112030029297,20.621299743652344,24.234533309936523,136.10029220581055
1759168949.1636677,1759168949.29529,241.6520118713379,0.423431396484375,0.06771087646484375,21.526575088500977,21.59428596496582,23.79441261291504,135.542631149292
1759168949.411455,1759168949.5445662,241.5781021118164,0.7190704345703125,0.06437301635742188,20.172834396362305,20.237207412719727,22.6137638092041,113.94619941711426
1759168949.6531737,1759168949.7666788,204.40030097961426,1.7499923706054688,0.06413459777832031,20.467281341552734,20.531415939331055,23.122072219848633,135.96296310424805
1759168949.861635,1759168949.9935675,221.24028205871582,0.8375644683837891,0.06532669067382812,20.026445388793945,20.091772079467773,22.755861282348633,136.73019409179688
1759168950.08302,1759168950.219422,247.55382537841797,0.8633136749267578,0.0629425048828125,20.05147933959961,20.114421844482422,22.91274070739746,137.11905479431152
1759168950.3336687,1759168950.4458632,222.0628261566162,0.5290508270263672,0.0667572021484375,21.65818214416504,21.724939346313477,23.223161697387695,136.60836219787598
1759168950.5558743,1759168950.6698818,204.85377311706543,0.5474090576171875,0.0667572021484375,21.718263626098633,21.78502082824707,23.299694061279297,116.95575714111328
1759168950.760875,1759168950.8950272,208.0361843109131,0.8821487426757812,0.06389617919921875,20.049571990966797,20.113468170166016,22.854328155517578,135.93435287475586
1759168950.9726326,1759168951.121136,221.22883796691895,1.6930103302001953,0.06461143493652344,20.160913467407227,20.22552490234375,23.027420043945312,135.0705623626709
1759168951.197589,1759168951.347828,240.72742462158203,0.7851123809814453,0.06413459777832031,21.106481552124023,21.170616149902344,23.630142211914062,157.61351585388184
1759168951.4387333,1759168951.5724792,224.35665130615234,1.676797866821289,0.06461143493652344,20.460128784179688,20.52474021911621,23.88453483581543,155.50732612609863
1759168951.663232,1759168951.7956874,224.44653511047363,1.953125,0.06556510925292969,20.017147064208984,20.082712173461914,23.845911026000977,155.48372268676758
1759168951.8886547,1759168952.0243118,225.1720428466797,0.507354736328125,0.06628036499023438,21.36397361755371,21.430253982543945,22.95088768005371,136.8412971496582
1759168952.1139948,1759168952.2481904,229.64119911193848,0.4596710205078125,0.06699562072753906,21.665096282958984,21.732091903686523,24.193525314331055,157.07015991210938
1759168952.3440266,1759168952.4742405,221.60625457763672,0.4475116729736328,0.08082389831542969,23.03624153137207,23.1170654296875,25.452852249145508,134.77587699890137
1759168952.56963,1759168952.6994824,220.86000442504883,1.8281936645507812,0.06818771362304688,20.21193504333496,20.280122756958008,24.20973777770996,156.32390975952148
1759168952.7939496,1759168952.9264135,242.42806434631348,0.4324913024902344,0.06818771362304688,21.969318389892578,22.037506103515625,24.23381805419922,136.0337734222412
1759168953.036534,1759168953.1531317,209.10239219665527,0.89263916015625,0.06413459777832031,21.47698402404785,21.541118621826172,24.184703826904297,139.00470733642578
1759168953.2458222,1759168953.378747,224.81417655944824,0.5738735198974609,0.06842613220214844,21.6519832611084,21.720409393310547,24.20353889465332,137.94255256652832
1759168953.4708216,1759168953.6054342,224.8854637145996,1.9211769104003906,0.06651878356933594,20.138025283813477,20.204544067382812,24.127960205078125,140.84792137145996
1759168953.695853,1759168953.8307128,209.7792625427246,1.6355514526367188,0.064849853515625,20.434856414794922,20.499706268310547,23.8800048828125,116.5773868560791
1759168953.9057784,1759168954.0561457,225.07882118225098,0.7848739624023438,0.06413459777832031,21.468162536621094,21.532297134399414,24.033546447753906,138.9765739440918
1759168954.131039,1759168954.2851443,244.6310520172119,1.6934871673583984,0.06413459777832031,20.0502872467041,20.114421844482422,22.275686264038086,136.3852024078369
1759168954.3842478,1759168954.5127404,236.3886833190918,0.3628730773925781,0.0629425048828125,21.24786376953125,21.310806274414062,22.15433120727539,113.8315200805664
1759168954.620779,1759168954.7354543,206.8648338317871,0.9007453918457031,0.0629425048828125,21.33011817932129,21.3930606842041,22.93705940246582,135.2698802947998
1759168954.8278382,1759168954.961722,227.8006076812744,0.6234645843505859,0.06318092346191406,21.600961685180664,21.664142608642578,23.243188858032227,138.16070556640625
1759168955.0595932,1759168955.18832,200.03890991210938,1.703023910522461,0.06389617919921875,20.260334014892578,20.324230194091797,22.966623306274414,115.26346206665039
1759168955.2636375,1759168955.415041,202.64053344726562,0.5376338958740234,0.06222724914550781,20.114421844482422,20.17664909362793,21.66008949279785,115.69547653198242
1759168955.4664133,1759168955.6170118,241.5294647216797,0.5829334259033203,0.06794929504394531,21.99840545654297,22.066354751586914,23.62680435180664,157.12523460388184
1759168955.7081103,1759168955.84185,204.41389083862305,0.9517669677734375,0.06413459777832031,20.061969757080078,20.1261043548584,22.975444793701172,135.65611839294434
1759168955.9126673,1759168956.0707338,247.36523628234863,1.4755725860595703,0.06508827209472656,19.922733306884766,19.987821578979492,22.127866744995117,137.2992992401123
1759168956.1674662,1759168956.318394,259.8865032196045,0.6482601165771484,0.06461143493652344,21.419048309326172,21.483659744262695,23.680448532104492,135.5750560760498
1759168956.427499,1759168956.539961,183.99333953857422,1.7421245574951172,0.06389617919921875,20.49708366394043,20.56097984313965,24.06597137451172,135.55335998535156
1759168956.6116505,1759168956.768335,229.02154922485352,0.5853176116943359,0.0629425048828125,20.023345947265625,20.086288452148438,21.665573120117188,117.25258827209473
1759168956.8408458,1759168956.99323,227.0069122314453,0.5908012390136719,0.06461143493652344,21.444082260131836,21.50869369506836,23.1778621673584,157.49311447143555
1759168957.068285,1759168957.218567,245.3477382659912,1.6856193542480469,0.06437301635742188,20.21026611328125,20.274639129638672,22.976160049438477,155.7307243347168
1759168957.313816,1759168957.4442804,241.3468360900879,0.8113384246826172,0.0629425048828125,21.297931671142578,21.36087417602539,22.957324981689453,156.07285499572754
1759168957.5555894,1759168957.6697328,207.0457935333252,2.0084381103515625,0.06556510925292969,20.08843421936035,20.15399932861328,23.762941360473633,135.17379760742188
1759168957.766631,1759168957.8966117,219.08831596374512,0.9801387786865234,0.06747245788574219,21.288394927978516,21.355867385864258,23.242473602294922,117.9513931274414
1759168957.9896348,1759168958.121878,223.26374053955078,0.7352828979492188,0.06747245788574219,23.130178451538086,23.197650909423828,24.79863166809082,118.96610260009766
1759168958.212996,1759168958.347181,204.65373992919922,1.0271072387695312,0.06318092346191406,20.022869110107422,20.086050033569336,23.070335388183594,138.23175430297852
1759168958.4177923,1759168958.5725276,228.06143760681152,0.7452964782714844,0.064849853515625,21.35157585144043,21.416425704956055,23.183107376098633,135.95008850097656
1759168958.6495893,1759168958.7983932,238.9531135559082,1.825571060180664,0.06508827209472656,19.999980926513672,20.0650691986084,23.696422576904297,135.67686080932617
1759168958.8895352,1759168959.0243044,224.9281406402588,1.4410018920898438,0.0667572021484375,21.564722061157227,21.631479263305664,24.12891387939453,136.8091106414795
1759168959.114899,1759168959.2502081,226.78852081298828,1.4293193817138672,0.06985664367675781,21.773099899291992,21.84295654296875,24.273395538330078,136.17920875549316
1759168959.3426683,1759168959.4762475,224.48325157165527,0.7839202880859375,0.06651878356933594,21.297454833984375,21.36397361755371,23.919105529785156,156.50224685668945
1759168959.5686471,1759168959.7024963,244.49586868286133,0.7789134979248047,0.06747245788574219,21.313190460205078,21.38066291809082,23.79441261291504,156.8131446838379
1759168959.8140996,1759168959.9279714,224.69401359558105,0.9367465972900391,0.06890296936035156,21.234512329101562,21.303415298461914,23.939847946166992,155.9138298034668
1759168960.0389345,1759168960.1528115,204.27751541137695,0.9353160858154297,0.06413459777832031,19.980907440185547,20.045042037963867,22.59230613708496,136.53898239135742
1759168960.2433574,1759168960.3777177,205.28626441955566,0.9565353393554688,0.06365776062011719,19.984006881713867,20.047664642333984,23.12493324279785,135.80727577209473
1759168960.448788,1759168960.605143,226.5162467956543,0.5438327789306641,0.0629425048828125,21.089792251586914,21.152734756469727,22.309541702270508,136.1842155456543
1759168960.6753962,1759168960.8075106,242.2168254852295,0.9782314300537109,0.0743865966796875,22.38941192626953,22.46379852294922,25.27022361755371,135.0874900817871
1759168960.9177551,1759168961.0305696,185.87923049926758,0.9870529174804688,0.06341934204101562,20.034074783325195,20.09749412536621,22.911548614501953,134.1707706451416
1759168961.1037817,1759168961.2577302,223.10805320739746,0.4863739013671875,0.0629425048828125,20.11251449584961,20.175457000732422,21.704435348510742,133.97836685180664
1759168961.3358672,1759168961.485271,237.02740669250488,0.36716461181640625,0.062465667724609375,19.962072372436523,20.024538040161133,20.975589752197266,113.96074295043945
1759168961.5733328,1759168961.7066383,224.93839263916016,0.7407665252685547,0.0667572021484375,22.335290908813477,22.402048110961914,25.111913681030273,155.30824661254883
1759168961.801672,1759168961.930567,221.1132049560547,1.6825199127197266,0.06413459777832031,20.522594451904297,20.586729049682617,23.409605026245117,155.53593635559082
1759168962.0229292,1759168962.1642609,232.6793670654297,0.9109973907470703,0.06318092346191406,20.083904266357422,20.147085189819336,23.16117286682129,141.98970794677734
1759168962.2585895,1759168962.390488,223.50311279296875,0.9284019470214844,0.06365776062011719,21.099090576171875,21.162748336791992,22.920846939086914,137.40158081054688
1759168962.4822357,1759168962.6145234,223.51479530334473,1.947641372680664,0.07176399230957031,20.078182220458984,20.149946212768555,24.014711380004883,156.92734718322754
1759168962.7061865,1759168962.8409793,208.6653709411621,1.6603469848632812,0.06437301635742188,20.238161087036133,20.302534103393555,22.95851707458496,135.8952522277832
1759168962.9150326,1759168963.0666306,241.8212890625,1.8343925476074219,0.06985664367675781,19.90365982055664,19.9735164642334,22.588729858398438,136.69061660766602
1759168963.1577523,1759168963.3380568,273.93031120300293,0.43654441833496094,0.07534027099609375,23.19049835205078,23.265838623046875,25.57849884033203,162.35852241516113
1759168963.4320724,1759168963.5635102,241.75500869750977,1.6336441040039062,0.06628036499023438,20.47586441040039,20.542144775390625,24.250268936157227,156.95953369140625
1759168963.673972,1759168963.7878754,203.92560958862305,1.664876937866211,0.06413459777832031,20.478248596191406,20.542383193969727,24.038076400756836,136.58785820007324
1759168963.8779976,1759168964.0106404,205.63387870788574,2.0008087158203125,0.06437301635742188,20.07746696472168,20.1418399810791,23.055315017700195,135.18381118774414
1759168964.083779,1759168964.236779,203.27115058898926,0.9260177612304688,0.06318092346191406,20.177364349365234,20.24054527282715,23.104190826416016,114.28284645080566
1759168964.2871923,1759168964.4639435,245.06092071533203,0.5478858947753906,0.07081031799316406,20.09272575378418,20.163536071777344,21.693944931030273,115.17024040222168
1759168964.5336654,1759168964.6673217,245.35512924194336,0.6992816925048828,0.06771087646484375,22.478580474853516,22.54629135131836,24.935007095336914,136.93976402282715
1759168964.7791607,1759168964.892434,203.91416549682617,0.9400844573974609,0.06413459777832031,20.190715789794922,20.254850387573242,21.92974090576172,136.51037216186523
1759168964.9832196,1759168965.1182384,225.71277618408203,1.2285709381103516,0.0705718994140625,20.116090774536133,20.186662673950195,23.12922477722168,137.63999938964844
1759168965.2090304,1759168965.343905,228.60288619995117,1.657247543334961,0.06508827209472656,20.16472816467285,20.229816436767578,22.929668426513672,156.59832954406738
1759168965.4378133,1759168965.569654,222.62001037597656,1.8019676208496094,0.07390975952148438,20.133495330810547,20.20740509033203,23.196697235107422,157.51051902770996
1759168965.6605887,1759168965.794827,228.26504707336426,0.5640983581542969,0.06365776062011719,21.320581436157227,21.384239196777344,22.920846939086914,155.78532218933105
1759168965.8892813,1759168966.02064,223.35028648376465,0.8046627044677734,0.07128715515136719,21.182537078857422,21.25382423400879,22.70960807800293,135.50734519958496
1759168966.1127775,1759168966.2483168,245.95284461975098,1.5673637390136719,0.06437301635742188,20.29705047607422,20.36142349243164,22.602081298828125,157.98711776733398
1759168966.358874,1759168966.4748223,225.11768341064453,0.7975101470947266,0.06318092346191406,19.909143447875977,19.97232437133789,22.57561683654785,134.89222526550293
1759168966.584134,1759168966.7000177,205.60789108276367,0.8425712585449219,0.06532669067382812,20.073413848876953,20.13874053955078,22.80139923095703,137.56728172302246
1759168966.7898858,1759168966.92664,227.7963161468506,1.6224384307861328,0.06461143493652344,20.084142684936523,20.148754119873047,22.7053165435791,135.80608367919922
1759168967.0215886,1759168967.1520216,241.14680290222168,0.7157325744628906,0.06699562072753906,21.669626235961914,21.736621856689453,24.138927459716797,136.96646690368652
1759168967.268756,1759168967.4022424,240.5073642730713,0.5676746368408203,0.06461143493652344,21.102428436279297,21.16703987121582,22.186994552612305,113.44480514526367
1759168967.5094204,1759168967.6218197,188.21120262145996,1.7483234405517578,0.064849853515625,20.55811882019043,20.622968673706055,24.434328079223633,136.05332374572754
1759168967.6977787,1759168967.8520844,204.50162887573242,0.5502700805664062,0.06413459777832031,20.15852928161621,20.22266387939453,21.653175354003906,116.48392677307129
1759168967.9056323,1759168968.0541646,239.55845832824707,0.5438327789306641,0.06747245788574219,21.925926208496094,21.993398666381836,23.434162139892578,156.57758712768555
1759168968.145336,1759168968.278114,225.3704071044922,1.1897087097167969,0.06461143493652344,21.187543869018555,21.252155303955078,24.27363395690918,156.99172019958496
1759168968.3729298,1759168968.506451,224.06935691833496,0.5056858062744141,0.07224082946777344,21.454334259033203,21.526575088500977,24.11365509033203,156.27408027648926
1759168968.5971394,1759168968.7319856,227.494478225708,0.7627010345458984,0.06771087646484375,21.224260330200195,21.29197120666504,23.773908615112305,155.93266487121582
1759168968.8248143,1759168968.957324,243.12138557434082,2.1741390228271484,0.07390975952148438,20.076274871826172,20.150184631347656,24.364948272705078,157.32288360595703
1759168969.0680811,1759168969.1823459,184.0343475341797,1.8219947814941406,0.06580352783203125,20.178556442260742,20.244359970092773,23.841381072998047,116.11557006835938
1759168969.2556353,1759168969.4093719,223.97184371948242,0.6806850433349609,0.06532669067382812,21.451950073242188,21.517276763916016,23.848772048950195,138.4294033050537
1759168969.4797513,1759168969.6339774,225.83723068237305,1.825571060180664,0.06866455078125,20.389556884765625,20.458221435546875,24.088144302368164,156.27527236938477
1759168969.7057297,1759168969.8608143,245.58210372924805,1.8985271453857422,0.06437301635742188,19.900798797607422,19.965171813964844,22.58133888244629,136.23571395874023
1759168969.953637,1759168970.0880756,224.287748336792,0.9055137634277344,0.06365776062011719,20.15829086303711,20.221948623657227,22.76921272277832,116.96171760559082
1759168970.1780221,1759168970.310767,225.0516414642334,0.8895397186279297,0.06270408630371094,21.335363388061523,21.398067474365234,24.02663230895996,156.20684623718262
1759168970.404132,1759168970.5374975,229.5398712158203,1.3947486877441406,0.06580352783203125,21.97718620300293,22.04298973083496,24.30415153503418,156.25643730163574
1759168970.633818,1759168970.765396,242.41924285888672,0.5123615264892578,0.06818771362304688,21.71158790588379,21.779775619506836,23.191452026367188,156.04782104492188
1759168970.8763819,1759168970.989968,184.08536911010742,0.9977817535400391,0.06365776062011719,20.030975341796875,20.094633102416992,21.953344345092773,136.56067848205566
1759168971.0606215,1759168971.2160702,247.07627296447754,0.9551048278808594,0.064849853515625,20.079851150512695,20.14470100402832,22.899866104125977,138.06486129760742
1759168971.307837,1759168971.4405718,205.3816318511963,1.9271373748779297,0.0705718994140625,20.241498947143555,20.312070846557617,23.955583572387695,156.69012069702148
1759168971.5156667,1759168971.6691635,248.18658828735352,1.5513896942138672,0.06461143493652344,20.338773727416992,20.403385162353516,23.710012435913086,156.5392017364502
1759168971.7639494,1759168971.8964994,241.86968803405762,0.5590915679931641,0.06628036499023438,21.562576293945312,21.628856658935547,23.148059844970703,134.6883773803711
1759168972.0059645,1759168972.1210828,204.47444915771484,0.9839534759521484,0.06508827209472656,20.171403884887695,20.236492156982422,23.102760314941406,117.0048713684082
1759168972.210551,1759168972.346784,206.4507007598877,1.9488334655761719,0.06890296936035156,20.171403884887695,20.240306854248047,22.835254669189453,140.26236534118652
1759168972.417146,1759168972.572451,227.73218154907227,0.7941722869873047,0.06437301635742188,21.319866180419922,21.384239196777344,23.29254150390625,135.79225540161133
1759168972.6495895,1759168972.800393,243.33739280700684,0.7154941558837891,0.06365776062011719,21.28434181213379,21.347999572753906,23.02861213684082,136.30056381225586
1759168972.893072,1759168973.0264235,225.56400299072266,0.5095005035400391,0.06794929504394531,21.37470245361328,21.442651748657227,23.03147315979004,137.2518539428711
1759168973.1188192,1759168973.2520792,243.2386875152588,0.5176067352294922,0.06699562072753906,21.670818328857422,21.73781394958496,23.24223518371582,136.11984252929688
1759168973.3625886,1759168973.4787645,226.61209106445312,0.43511390686035156,0.06699562072753906,22.049903869628906,22.116899490356445,24.335384368896484,136.38639450073242
1759168973.5965917,1759168973.729031,239.9890422821045,0.728607177734375,0.064849853515625,19.998788833618164,20.06363868713379,22.43828773498535,113.89708518981934
1759168973.8367229,1759168973.9508355,204.88929748535156,1.6765594482421875,0.064849853515625,20.56288719177246,20.627737045288086,24.129867553710938,137.5446319580078
1759168974.0417557,1759168974.1775682,229.89535331726074,1.9240379333496094,0.07224082946777344,20.304203033447266,20.37644386291504,24.19900894165039,138.33332061767578
1759168974.275678,1759168974.4067583,222.95689582824707,1.9893646240234375,0.06389617919921875,20.298004150390625,20.361900329589844,24.342775344848633,136.37757301330566
1759168974.5026362,1759168974.6339226,222.01991081237793,0.9765625,0.06437301635742188,21.259546279907227,21.32391929626465,24.13344383239746,136.19351387023926
1759168974.724756,1759168974.8600209,226.13859176635742,2.2711753845214844,0.06461143493652344,20.077943801879883,20.142555236816406,23.13375473022461,136.30962371826172
1759168974.951039,1759168975.0871136,226.08137130737305,0.8466243743896484,0.06389617919921875,19.997358322143555,20.061254501342773,21.786928176879883,136.71493530273438
1759168975.177218,1759168975.3130827,226.5927791595459,0.9839534759521484,0.06413459777832031,20.047426223754883,20.111560821533203,22.005081176757812,137.1006965637207
1759168975.403952,1759168975.5394304,225.0516414642334,0.9763240814208984,0.06341934204101562,20.049333572387695,20.11275291442871,22.852182388305664,135.50710678100586
1759168975.629143,1759168975.7652924,225.1439094543457,0.629425048828125,0.06461143493652344,21.52228355407715,21.586894989013672,23.87380599975586,135.32257080078125
1759168975.8544302,1759168975.9871275,207.41581916809082,1.0039806365966797,0.06508827209472656,21.214962005615234,21.28005027770996,24.04022216796875,155.2865505218506
1759168976.0655875,1759168976.2144175,244.26651000976562,0.7228851318359375,0.06365776062011719,21.324634552001953,21.38829231262207,23.139238357543945,155.120849609375
1759168976.3135893,1759168976.4428594,221.14992141723633,1.7061233520507812,0.06365776062011719,20.012855529785156,20.076513290405273,22.426128387451172,157.03320503234863
1759168976.5396304,1759168976.66824,239.11523818969727,0.9274482727050781,0.06723403930664062,22.77398109436035,22.841215133666992,25.630474090576172,135.21385192871094
1759168976.778844,1759168976.892238,184.08870697021484,0.9694099426269531,0.0629425048828125,20.008325576782227,20.07126808166504,23.105859756469727,135.76865196228027
1759168976.9656358,1759168977.1200578,246.2165355682373,1.4619827270507812,0.06437301635742188,20.019054412841797,20.08342742919922,22.181034088134766,136.7661952972412
1759168977.216716,1759168977.368015,260.57887077331543,1.7518997192382812,0.06556510925292969,20.177841186523438,20.243406295776367,22.46856689453125,135.99634170532227
1759168977.4774363,1759168977.5892148,183.39228630065918,0.8440017700195312,0.06437301635742188,21.55470848083496,21.619081497192383,24.39117431640625,135.61415672302246
1759168977.6609726,1759168977.8164325,248.71182441711426,0.5478858947753906,0.06413459777832031,21.391630172729492,21.455764770507812,23.047685623168945,156.97693824768066
1759168977.9135895,1759168978.04208,220.25680541992188,1.6291141510009766,0.06413459777832031,20.212173461914062,20.276308059692383,22.995471954345703,155.78389167785645
1759168978.1379142,1759168978.2691667,223.76489639282227,0.7491111755371094,0.07319450378417969,20.297765731811523,20.370960235595703,22.220611572265625,136.54398918151855
1759168978.3655896,1759168978.4957163,239.83168601989746,0.9262561798095703,0.06389617919921875,20.003080368041992,20.06697654724121,21.842479705810547,135.82158088684082
1759168978.6096373,1759168978.7217183,201.27177238464355,0.9467601776123047,0.06318092346191406,20.081758499145508,20.144939422607422,22.945404052734375,115.39006233215332
1759168978.8110504,1759168978.9476862,225.86631774902344,1.682281494140625,0.06365776062011719,20.20263671875,20.266294479370117,22.678613662719727,117.00868606567383
1759168979.0370617,1759168979.1697996,204.27894592285156,2.004384994506836,0.06604194641113281,20.189762115478516,20.25580406188965,23.142099380493164,135.0390911102295
1759168979.2414825,1759168979.396758,228.1506061553955,1.7573833465576172,0.06580352783203125,20.13540267944336,20.20120620727539,22.94445037841797,115.9217357635498
1759168979.4697793,1759168979.6219614,226.0725498199463,0.7724761962890625,0.06341934204101562,21.329641342163086,21.3930606842041,23.074865341186523,137.43257522583008
1759168979.6960356,1759168979.8480601,242.66672134399414,1.77764892578125,0.064849853515625,20.247697830200195,20.31254768371582,23.084640502929688,157.257080078125
1759168979.9415932,1759168980.0738623,223.37889671325684,1.7518997192382812,0.064849853515625,20.59483528137207,20.659685134887695,24.525880813598633,137.50576972961426
1759168980.1651173,1759168980.2995064,224.70426559448242,1.9233226776123047,0.06532669067382812,20.32756805419922,20.392894744873047,24.29795265197754,136.0487937927246
1759168980.3899665,1759168980.5247838,225.36110877990723,0.7724761962890625,0.06318092346191406,21.306991577148438,21.37017250061035,22.699832916259766,135.75434684753418
1759168980.615768,1759168980.7510574,212.31389045715332,0.7746219635009766,0.06461143493652344,21.305084228515625,21.36969566345215,23.21028709411621,157.81188011169434
1759168980.8282244,1759168980.9787526,239.1488552093506,1.7786026000976562,0.064849853515625,20.12491226196289,20.189762115478516,22.7205753326416,135.32567024230957
1759168981.067531,1759168981.2031076,247.2386360168457,1.6353130340576172,0.06437301635742188,20.57671546936035,20.641088485717773,24.140596389770508,157.09185600280762
1759168981.3151946,1759168981.4281101,204.58555221557617,1.4636516571044922,0.06508827209472656,21.853208541870117,21.918296813964844,25.32172203063965,136.458158493042
1759168981.5199237,1759168981.653191,204.87499237060547,0.8907318115234375,0.06389617919921875,21.457910537719727,21.521806716918945,24.348020553588867,135.64705848693848
1759168981.7249427,1759168981.882608,249.9384880065918,0.5280971527099609,0.06270408630371094,21.29220962524414,21.35491371154785,22.888660430908203,158.57267379760742
1759168981.9753044,1759168982.1081219,243.61205101013184,1.8622875213623047,0.06771087646484375,20.17498016357422,20.242691040039062,22.936105728149414,156.91351890563965
1759168982.2190588,1759168982.3320312,183.6535930633545,1.0020732879638672,0.06413459777832031,20.035743713378906,20.099878311157227,23.18096160888672,135.2989673614502
1759168982.4028523,1759168982.5588083,229.8283576965332,0.3612041473388672,0.06341934204101562,21.355628967285156,21.419048309326172,22.423505783081055,114.83097076416016
1759168982.6332154,1759168982.7827184,240.50426483154297,0.5748271942138672,0.06723403930664062,21.814346313476562,21.881580352783203,23.59604835510254,157.00268745422363
1759168982.8738613,1759168983.0073276,224.69711303710938,0.9379386901855469,0.06937980651855469,20.075082778930664,20.14446258544922,22.211313247680664,156.7215919494629
1759168983.0987,1759168983.2329469,225.30293464660645,0.9152889251708984,0.06365776062011719,20.08366584777832,20.147323608398438,23.47850799560547,155.7903289794922
1759168983.3244336,1759168983.458944,224.72643852233887,1.7561912536621094,0.06437301635742188,20.566701889038086,20.631074905395508,24.133920669555664,136.21163368225098
1759168983.5493045,1759168983.6854541,231.32014274597168,1.4770030975341797,0.06437301635742188,19.992589950561523,20.056962966918945,22.173166275024414,136.05833053588867
1759168983.78104,1759168983.9310482,240.75722694396973,1.0581016540527344,0.06389617919921875,21.24333381652832,21.30722999572754,24.28126335144043,155.88736534118652
1759168984.0222092,1759168984.1571925,229.72488403320312,1.9385814666748047,0.06604194641113281,20.326852798461914,20.392894744873047,24.3074893951416,156.72802925109863
1759168984.2520783,1759168984.3853717,222.5344181060791,0.41556358337402344,0.06699562072753906,21.899938583374023,21.966934204101562,24.222373962402344,137.11953163146973
1759168984.4747574,1759168984.6077256,224.7176170349121,0.7984638214111328,0.06723403930664062,22.6137638092041,22.680997848510742,25.206327438354492,158.17713737487793
1759168984.6999617,1759168984.8332422,230.67164421081543,1.6987323760986328,0.06413459777832031,20.5230712890625,20.58720588684082,24.35755729675293,175.12083053588867
1759168984.9308193,1759168985.06116,241.01734161376953,1.6055107116699219,0.06508827209472656,20.394325256347656,20.459413528442383,23.87714385986328,155.70855140686035
1759168985.1719816,1759168985.2870271,188.9050006866455,0.5373954772949219,0.0629425048828125,21.5456485748291,21.608591079711914,23.13852310180664,137.8467082977295
1759168985.364676,1759168985.5139062,241.55259132385254,0.7326602935791016,0.06747245788574219,23.155689239501953,23.223161697387695,24.708032608032227,140.1658058166504
1759168985.6063821,1759168985.7407172,227.48494148254395,0.8668899536132812,0.06413459777832031,21.474599838256836,21.538734436035156,23.390769958496094,156.87108039855957
1759168985.834023,1759168985.967927,226.7162799835205,2.001047134399414,0.06461143493652344,20.279645919799805,20.344257354736328,24.144411087036133,156.69870376586914
1759168986.060892,1759168986.1953092,227.45680809020996,2.0668506622314453,0.06365776062011719,20.660400390625,20.724058151245117,24.981975555419922,157.5641632080078
1759168986.2885225,1759168986.423667,226.48191452026367,0.8788108825683594,0.06461143493652344,20.055532455444336,20.12014389038086,22.896766662597656,156.7528247833252
1759168986.515486,1759168986.6512508,230.16643524169922,0.5927085876464844,0.06437301635742188,21.56233787536621,21.626710891723633,23.12922477722168,135.87164878845215
1759168986.745763,1759168986.8802273,227.8881072998047,0.6356239318847656,0.06341934204101562,21.550893783569336,21.61431312561035,23.189783096313477,137.0830535888672
1759168986.9738488,1759168987.1079967,225.57640075683594,0.8730888366699219,0.06508827209472656,21.699905395507812,21.76499366760254,23.178577423095703,139.4824981689453
1759168987.1995983,1759168987.3364527,232.04898834228516,1.8360614776611328,0.06532669067382812,20.244598388671875,20.309925079345703,23.0863094329834,137.93087005615234
1759168987.4318454,1759168987.5659661,207.11851119995117,0.5078315734863281,0.07033348083496094,20.151138305664062,20.221471786499023,21.843910217285156,136.93833351135254
1759168987.6393504,1759168987.7689595,221.10652923583984,0.44918060302734375,0.06747245788574219,23.249387741088867,23.31686019897461,25.418996810913086,135.02740859985352
1759168987.861591,1759168987.9952781,227.12016105651855,0.5059242248535156,0.06771087646484375,21.796703338623047,21.86441421508789,24.248838424682617,156.75973892211914
1759168988.0926092,1759168988.2241259,225.0499725341797,0.8080005645751953,0.06842613220214844,21.809101104736328,21.877527236938477,24.926424026489258,138.8101577758789
1759168988.3178246,1759168988.453217,231.87994956970215,1.5363693237304688,0.06794929504394531,21.392107009887695,21.46005630493164,25.012731552124023,138.87977600097656
1759168988.5498807,1759168988.6843162,229.79378700256348,0.8218288421630859,0.06556510925292969,21.90375328063965,21.969318389892578,24.84297752380371,140.11907577514648
1759168988.779807,1759168988.915368,228.7299633026123,1.1887550354003906,0.06985664367675781,21.48580551147461,21.555662155151367,24.802446365356445,140.4111385345459
1759168989.0096338,1759168989.1464953,229.54368591308594,0.9720325469970703,0.07367134094238281,21.688461303710938,21.76213264465332,24.81389045715332,139.24598693847656
1759168989.2426634,1759168989.376969,226.32431983947754,1.1696815490722656,0.06556510925292969,21.335840225219727,21.401405334472656,23.263216018676758,138.46397399902344
1759168989.4691563,1759168989.6060438,229.76398468017578,1.8153190612792969,0.06699562072753906,20.939111709594727,21.006107330322266,23.50902557373047,139.7104263305664
1759168989.6990943,1759168989.8344436,209.6104621887207,2.042055130004883,0.07414817810058594,20.74885368347168,20.823001861572266,24.907588958740234,160.14647483825684
1759168989.9126596,1759168990.0687413,247.79987335205078,1.0099411010742188,0.06556510925292969,20.08342742919922,20.14899253845215,21.88873291015625,139.38641548156738
1759168990.1617303,1759168990.3000102,229.15005683898926,1.0402202606201172,0.06365776062011719,20.151376724243164,20.21503448486328,23.227453231811523,138.95344734191895
1759168990.3910506,1759168990.530261,229.88367080688477,0.8788108825683594,0.06508827209472656,21.603822708129883,21.66891098022461,23.125886917114258,138.92006874084473
1759168990.6211128,1759168990.7596347,234.69090461730957,0.8184909820556641,0.0762939453125,22.00460433959961,22.08089828491211,23.93937110900879,160.9480381011963
1759168990.8563366,1759168990.9699268,226.10712051391602,0.446319580078125,0.07891654968261719,24.179935455322266,24.258852005004883,25.829315185546875,138.5176181793213
1759168991.0866609,1759168991.2001333,206.3605785369873,1.0035037994384766,0.06771087646484375,21.640300750732422,21.708011627197266,24.054288864135742,140.0761604309082
1759168991.2931945,1759168991.4295425,208.8005542755127,1.1456012725830078,0.06532669067382812,20.12491226196289,20.19023895263672,23.335933685302734,140.43664932250977
1759168991.5021698,1759168991.659099,235.53991317749023,0.6105899810791016,0.06318092346191406,21.872520446777344,21.935701370239258,23.7579345703125,138.1978988647461
1759168991.7382274,1759168991.8905203,226.73749923706055,0.8234977722167969,0.064849853515625,22.39370346069336,22.458553314208984,24.019956588745117,161.58509254455566
1759168991.965309,1759168992.0972037,251.74975395202637,0.46539306640625,0.06866455078125,30.258893966674805,30.327558517456055,31.29720687866211,143.355131149292
1759168992.217186,1759168992.3336213,189.30864334106445,1.1339187622070312,0.06437301635742188,20.046472549438477,20.1108455657959,23.327112197875977,138.72647285461426
1759168992.4086525,1759168992.5653355,247.5264072418213,0.49614906311035156,0.06270408630371094,21.44145965576172,21.50416374206543,22.62425422668457,116.98627471923828
1759168992.6596866,1759168992.7963934,248.11434745788574,0.5850791931152344,0.06985664367675781,22.135257720947266,22.205114364624023,23.895263671875,140.81120491027832
1759168992.907977,1759168993.026159,208.76073837280273,0.6206035614013672,0.06866455078125,20.715713500976562,20.784378051757812,23.370742797851562,121.25968933105469
1759168993.1169124,1759168993.2742474,253.7550926208496,0.5998611450195312,0.06556510925292969,28.555870056152344,28.621435165405273,29.869794845581055,146.15726470947266
1759168993.3707945,1759168993.531046,234.8639965057373,0.6074905395507812,0.06365776062011719,21.601438522338867,21.665096282958984,23.335933685302734,141.92962646484375
1759168993.6058722,1759168993.7604878,229.77709770202637,0.5846023559570312,0.0629425048828125,21.581649780273438,21.64459228515625,23.181438446044922,139.53256607055664
1759168993.8358526,1759168993.988968,230.13591766357422,1.874685287475586,0.06413459777832031,20.31111717224121,20.37525177001953,23.32901954650879,138.83376121520996
1759168994.0661957,1759168994.218961,228.47604751586914,1.9180774688720703,0.06604194641113281,20.28203010559082,20.348072052001953,23.346900939941406,140.5165195465088
1759168994.2986643,1759168994.4505377,229.2938232421875,0.5943775177001953,0.06365776062011719,21.90685272216797,21.970510482788086,23.64349365234375,140.8064365386963
1759168994.5316615,1759168994.6838305,243.50333213806152,1.0745525360107422,0.064849853515625,20.051956176757812,20.116806030273438,23.137331008911133,140.00725746154785
1759168994.7786777,1759168994.9146743,246.3374137878418,0.9562969207763672,0.06508827209472656,21.287202835083008,21.352291107177734,22.812843322753906,138.3810043334961
1759168995.025176,1759168995.1382854,188.5087490081787,1.9297599792480469,0.06508827209472656,20.72000503540039,20.785093307495117,23.781299591064453,136.04068756103516
1759168995.2176197,1759168995.3718438,226.65023803710938,1.0242462158203125,0.06389617919921875,20.085573196411133,20.14946937561035,22.5832462310791,137.94732093811035
1759168995.4476597,1759168995.603287,251.0209083557129,0.9462833404541016,0.06723403930664062,21.605968475341797,21.673202514648438,23.30327033996582,140.55895805358887
1759168995.7075386,1759168995.859534,252.92253494262695,1.5501976013183594,0.06556510925292969,20.581483840942383,20.647048950195312,22.879600524902344,137.89010047912598
1759168995.9636662,1759168996.0923257,220.062255859375,0.3590583801269531,0.09870529174804688,22.010326385498047,22.109031677246094,23.042678833007812,117.07925796508789
1759168996.1839077,1759168996.3177772,227.83350944519043,0.38909912109375,0.0667572021484375,23.461103439331055,23.527860641479492,26.24225616455078,158.25963020324707
1759168996.4146965,1759168996.5465949,210.97040176391602,0.8440017700195312,0.08249282836914062,22.020578384399414,22.103071212768555,24.91617202758789,137.09330558776855
1759168996.6258364,1759168996.7783964,227.24246978759766,1.855611801147461,0.06413459777832031,20.37191390991211,20.43604850769043,23.572444915771484,159.60383415222168
1759168996.8616235,1759168997.0104282,238.8160228729248,0.8175373077392578,0.06413459777832031,20.17521858215332,20.23935317993164,22.957324981689453,136.59191131591797
1759168997.1014073,1759168997.238651,229.736328125,1.093149185180664,0.06532669067382812,21.380186080932617,21.445512771606445,24.590492248535156,159.20209884643555
1759168997.3313212,1759168997.4688196,249.924898147583,1.8489360809326172,0.06580352783203125,20.641565322875977,20.707368850708008,24.386882781982422,158.71262550354004
1759168997.5814223,1759168997.6988764,214.2622470855713,0.9834766387939453,0.06365776062011719,21.725893020629883,21.78955078125,24.606943130493164,138.35453987121582
1759168997.7959201,1759168997.9298844,226.25374794006348,2.3682117462158203,0.0667572021484375,20.207643508911133,20.27440071105957,24.509191513061523,140.92707633972168
1759168998.0236619,1759168998.161476,208.09245109558105,0.5064010620117188,0.06794929504394531,22.038698196411133,22.106647491455078,23.623943328857422,120.65672874450684
1759168998.2346632,1759168998.3888614,247.3011016845703,0.7460117340087891,0.06842613220214844,23.341894149780273,23.410320281982422,26.026248931884766,141.585111618042
1759168998.482427,1759168998.6171224,232.57756233215332,0.9410381317138672,0.06341934204101562,21.734237670898438,21.797657012939453,23.774147033691406,158.15186500549316
1759168998.715177,1759168998.847216,225.9998321533203,0.9522438049316406,0.06413459777832031,21.70562744140625,21.76976203918457,23.527860641479492,160.6729030609131
1759168998.9436624,1759168999.0767071,227.48804092407227,1.138925552368164,0.06437301635742188,21.408796310424805,21.473169326782227,24.74069595336914,158.43605995178223
1759168999.1713264,1759168999.3077302,231.51922225952148,1.9707679748535156,0.064849853515625,21.273374557495117,21.338224411010742,25.261878967285156,161.82541847229004
1759168999.4033682,1759168999.5409229,231.30488395690918,0.6542205810546875,0.06413459777832031,21.625995635986328,21.69013023376465,23.32162857055664,138.66591453552246
1759168999.6348968,1759168999.7705386,228.3780574798584,0.8494853973388672,0.06461143493652344,21.50249481201172,21.567106246948242,23.543596267700195,138.20242881774902
1759168999.8646584,1759169000.001375,233.0155372619629,0.8664131164550781,0.0629425048828125,21.50726318359375,21.570205688476562,23.595571517944336,138.82875442504883
1759169000.0978532,1759169000.237667,233.1106662750244,1.0340213775634766,0.06985664367675781,21.852970123291016,21.922826766967773,24.974346160888672,144.09112930297852
1759169000.3318012,1759169000.4685788,230.60107231140137,2.1867752075195312,0.06723403930664062,20.131826400756836,20.199060440063477,23.13828468322754,139.11938667297363
1759169000.5659413,1759169000.7012422,226.5787124633789,0.5121231079101562,0.06771087646484375,22.03989028930664,22.107601165771484,23.855924606323242,138.41819763183594
1759169000.7936609,1759169000.9312832,229.8142910003662,0.5078315734863281,0.06818771362304688,22.162914276123047,22.231101989746094,23.959875106811523,138.68069648742676
1759169001.0236542,1759169001.1633363,230.70359230041504,0.5350112915039062,0.07009506225585938,21.87490463256836,21.94499969482422,23.714065551757812,138.7166976928711
1759169001.2606678,1759169001.3923774,227.40411758422852,1.6160011291503906,0.07081031799316406,21.99268341064453,22.063493728637695,24.82891082763672,138.2009983062744
1759169001.4882507,1759169001.6225243,227.51665115356445,1.2905597686767578,0.07104873657226562,21.97432518005371,22.045373916625977,24.47056770324707,140.8827304840088
1759169001.715959,1759169001.8532405,209.49435234069824,1.142263412475586,0.06747245788574219,20.125150680541992,20.192623138427734,22.630691528320312,140.67649841308594
1759169001.9256449,1759169002.0849204,232.41829872131348,1.2471675872802734,0.06723403930664062,20.148038864135742,20.215272903442383,22.66097068786621,139.84060287475586
1759169002.158241,1759169002.3177123,252.54249572753906,0.9455680847167969,0.06604194641113281,21.67963981628418,21.745681762695312,23.389339447021484,160.9663963317871
1759169002.4113793,1759169002.5506167,232.7117919921875,0.9553432464599609,0.06628036499023438,21.579980850219727,21.64626121520996,23.36430549621582,159.81221199035645
1759169002.645143,1759169002.7832272,232.25951194763184,1.8520355224609375,0.07009506225585938,20.854711532592773,20.924806594848633,24.992704391479492,159.074068069458
1759169002.877601,1759169003.0173745,232.20562934875488,0.4031658172607422,0.064849853515625,21.640777587890625,21.70562744140625,22.808551788330078,136.6133689880371
1759169003.1198018,1759169003.2727604,265.2316093444824,1.8432140350341797,0.06818771362304688,20.185232162475586,20.253419876098633,22.805452346801758,137.90321350097656
1759169003.3852181,1759169003.506639,222.5046157836914,0.461578369140625,0.06818771362304688,21.898984909057617,21.967172622680664,23.192882537841797,138.98110389709473
1759169003.608238,1759169003.764093,246.82950973510742,1.8489360809326172,0.06937980651855469,20.38717269897461,20.456552505493164,23.36883544921875,140.1083469390869
1759169003.8555627,1759169003.9938102,230.36527633666992,1.9023418426513672,0.06508827209472656,20.68781852722168,20.752906799316406,24.47819709777832,139.13369178771973
1759169004.0861056,1759169004.2213094,209.60545539855957,2.0017623901367188,0.06508827209472656,20.803451538085938,20.868539810180664,23.925065994262695,137.31122016906738
1759169004.2958903,1759169004.4552283,232.50961303710938,1.0380744934082031,0.06341934204101562,19.990205764770508,20.053625106811523,22.226572036743164,138.75460624694824
1759169004.5285974,1759169004.6869438,251.09052658081055,0.7755756378173828,0.06556510925292969,21.740436553955078,21.806001663208008,23.256540298461914,160.95590591430664
1759169004.7801669,1759169004.918155,235.5806827545166,2.193450927734375,0.064849853515625,20.287275314331055,20.35212516784668,24.426698684692383,159.47651863098145
1759169005.0159235,1759169005.1509116,247.09653854370117,0.4558563232421875,0.07152557373046875,22.548437118530273,22.619962692260742,25.011062622070312,139.00113105773926
1759169005.268883,1759169005.3809931,224.90620613098145,0.32711029052734375,0.07104873657226562,26.53956413269043,26.610612869262695,27.64582633972168,118.48664283752441
1759169005.4942713,1759169005.6118534,209.76924896240234,0.9336471557617188,0.07009506225585938,21.772384643554688,21.842479705810547,23.741722106933594,139.62030410766602
1759169005.7042146,1759169005.8417237,232.4545383453369,0.5550384521484375,0.06437301635742188,22.061824798583984,22.126197814941406,23.395061492919922,139.94455337524414
1759169005.9368448,1759169006.072097,227.41222381591797,0.9782314300537109,0.06413459777832031,21.571874618530273,21.636009216308594,24.48868751525879,139.19615745544434
1759169006.164435,1759169006.3022082,230.90529441833496,1.1827945709228516,0.064849853515625,21.843910217285156,21.90876007080078,24.0170955657959,140.90895652770996
1759169006.395535,1759169006.5304189,209.2297077178955,2.016305923461914,0.08392333984375,20.862817764282227,20.946741104125977,25.791168212890625,138.8843059539795
1759169006.6049397,1759169006.7628148,232.12718963623047,1.8723011016845703,0.06508827209472656,20.302534103393555,20.36762237548828,23.409366607666016,137.35413551330566
1759169006.8406556,1759169006.9732633,243.64066123962402,0.4944801330566406,0.06699562072753906,21.714448928833008,21.781444549560547,22.969722747802734,139.52946662902832
1759169007.0844705,1759169007.2036774,212.49794960021973,1.859426498413086,0.06651878356933594,20.237207412719727,20.303726196289062,23.23770523071289,138.15641403198242
1759169007.3010645,1759169007.4334693,243.49689483642578,0.44608116149902344,0.06794929504394531,22.471189498901367,22.539138793945312,24.92380142211914,138.68975639343262
1759169007.5454977,1759169007.6625469,229.54130172729492,1.6021728515625,0.06818771362304688,22.63164520263672,22.699832916259766,26.319026947021484,138.59224319458008
1759169007.775964,1759169007.893213,228.51848602294922,0.4665851593017578,0.06842613220214844,22.507429122924805,22.575855255126953,24.98769760131836,139.08028602600098
1759169008.0054088,1759169008.1202297,228.9891242980957,0.6322860717773438,0.06747245788574219,25.451183319091797,25.51865577697754,27.88233757019043,139.41216468811035
1759169008.2345493,1759169008.3491962,188.45415115356445,1.2450218200683594,0.07081031799316406,21.569013595581055,21.63982391357422,23.92101287841797,136.90781593322754
1759169008.42318,1759169008.5809722,250.70762634277344,1.0983943939208984,0.06556510925292969,20.047664642333984,20.113229751586914,22.145748138427734,157.84478187561035
1759169008.674059,1759169008.8111062,209.3191146850586,1.1315345764160156,0.064849853515625,20.109891891479492,20.174741744995117,22.669315338134766,138.20600509643555
1759169008.8835642,1759169009.0412676,250.29277801513672,2.6280879974365234,0.06532669067382812,20.161151885986328,20.226478576660156,23.602962493896484,138.824462890625
1759169009.1376603,1759169009.2727044,229.0480136871338,0.8771419525146484,0.06461143493652344,20.347118377685547,20.41172981262207,23.29874038696289,138.96584510803223
1759169009.3756073,1759169009.5257638,261.43431663513184,1.405954360961914,0.06532669067382812,20.226716995239258,20.292043685913086,23.889780044555664,138.75365257263184
1759169009.6372154,1759169009.7553163,228.3484935760498,0.8070468902587891,0.06461143493652344,21.311044692993164,21.375656127929688,23.092031478881836,137.21847534179688
1759169009.865733,1759169009.9837947,227.78558731079102,0.7510185241699219,0.06437301635742188,21.549224853515625,21.613597869873047,23.029088973999023,137.3279094696045
1759169010.0936775,1759169010.2096536,207.31472969055176,0.9601116180419922,0.06270408630371094,21.52276039123535,21.585464477539062,24.18684959411621,137.07661628723145
1759169010.3011472,1759169010.4360743,206.498384475708,1.0139942169189453,0.06437301635742188,20.23005485534668,20.2944278717041,23.567914962768555,116.71233177185059
1759169010.507804,1759169010.6656554,232.79190063476562,0.5414485931396484,0.06389617919921875,20.223617553710938,20.287513732910156,21.895408630371094,138.25583457946777
1759169010.7446177,1759169010.8722823,225.06451606750488,0.4630088806152344,0.07271766662597656,24.760723114013672,24.83344078063965,26.471614837646484,138.75484466552734
1759169010.9699085,1759169011.103683,229.7666072845459,2.2826194763183594,0.06914138793945312,20.340681076049805,20.409822463989258,24.959087371826172,140.6843662261963
1759169011.1998026,1759169011.3363638,228.8048267364502,0.5090236663818359,0.06699562072753906,22.734880447387695,22.801876068115234,24.311542510986328,142.66467094421387
1759169011.4306254,1759169011.5657358,229.08496856689453,0.6835460662841797,0.06747245788574219,25.62427520751953,25.691747665405273,27.300119400024414,140.41829109191895
1759169011.66021,1759169011.7951984,208.95004272460938,1.0752677917480469,0.06413459777832031,21.82936668395996,21.89350128173828,24.89018440246582,137.31002807617188
1759169011.869339,1759169012.028632,251.73163414001465,0.6566047668457031,0.06389617919921875,21.77906036376953,21.84295654296875,23.49710464477539,140.10238647460938
1759169012.1212478,1759169012.2591147,235.43477058410645,2.016305923461914,0.06580352783203125,20.299673080444336,20.365476608276367,23.456573486328125,139.99533653259277
1759169012.3569155,1759169012.4911757,208.0698013305664,0.5621910095214844,0.064849853515625,20.29561996459961,20.360469818115234,22.122621536254883,119.15826797485352
1759169012.5687058,1759169012.720174,227.26988792419434,0.6043910980224609,0.06413459777832031,21.794795989990234,21.858930587768555,23.484468460083008,140.0008201599121
1759169012.7961876,1759169012.9499924,228.8382053375244,0.8280277252197266,0.06341934204101562,21.45552635192871,21.518945693969727,23.62823486328125,137.87388801574707
1759169013.0289721,1759169013.1802568,225.08478164672852,1.9376277923583984,0.0667572021484375,20.36905288696289,20.435810089111328,23.638486862182617,159.7769260406494
1759169013.2626233,1759169013.4133563,242.08664894104004,0.9715557098388672,0.06580352783203125,20.193815231323242,20.259618759155273,23.224592208862305,139.07146453857422
1759169013.5052035,1759169013.643987,230.89838027954102,1.8846988677978516,0.06604194641113281,20.740032196044922,20.806074142456055,24.50394630432129,139.50610160827637
1759169013.7362776,1759169013.87124,230.4060459136963,1.2135505676269531,0.07128715515136719,21.581649780273438,21.652936935424805,23.710012435913086,161.68594360351562
1759169013.9707077,1759169014.1035337,226.08280181884766,2.239704132080078,0.06580352783203125,20.071744918823242,20.137548446655273,23.41008186340332,138.85831832885742
1759169014.1969204,1759169014.334764,230.93771934509277,1.0831356048583984,0.064849853515625,20.074129104614258,20.138978958129883,22.32074737548828,158.02431106567383
1759169014.4316998,1759169014.5644414,205.77502250671387,1.1601448059082031,0.06794929504394531,20.16735076904297,20.235300064086914,23.95033836364746,138.14210891723633
1759169014.6406205,1759169014.7985463,250.43058395385742,0.9489059448242188,0.07128715515136719,21.579265594482422,21.65055274963379,23.288965225219727,141.59274101257324
1759169014.891228,1759169015.0293043,231.25267028808594,0.7970333099365234,0.06532669067382812,21.917104721069336,21.982431411743164,24.876832962036133,139.35494422912598
1759169015.1226726,1759169015.2602987,233.00480842590332,1.1601448059082031,0.07319450378417969,21.318435668945312,21.391630172729492,23.499727249145508,139.91141319274902
1759169015.3558533,1759169015.4915125,228.37185859680176,1.9574165344238281,0.07390975952148438,20.92766761779785,21.001577377319336,24.155378341674805,138.8411521911621
1759169015.584405,1759169015.7219312,229.72559928894043,2.165079116821289,0.06532669067382812,19.99807357788086,20.063400268554688,22.93992042541504,160.31622886657715
1759169015.8146195,1759169015.9516966,230.05366325378418,1.2333393096923828,0.06580352783203125,21.549224853515625,21.615028381347656,23.73218536376953,159.34443473815918
1759169016.045129,1759169016.1833394,230.8199405670166,1.9693374633789062,0.06604194641113281,21.2252140045166,21.291255950927734,25.12049674987793,139.56594467163086
1759169016.2761278,1759169016.4159682,231.56332969665527,1.9614696502685547,0.06461143493652344,20.169973373413086,20.23458480834961,23.15044403076172,120.2089786529541
1759169016.511731,1759169016.6471376,232.96117782592773,1.9431114196777344,0.06842613220214844,20.412683486938477,20.481109619140625,23.316621780395508,120.70679664611816
1759169016.7449274,1759169016.8768706,230.05938529968262,2.1910667419433594,0.06628036499023438,20.198345184326172,20.264625549316406,24.462223052978516,161.43012046813965
1759169016.979076,1759169017.1079893,228.0566692352295,1.8050670623779297,0.06580352783203125,20.848751068115234,20.914554595947266,25.01511573791504,159.38282012939453
1759169017.2106647,1759169017.3390832,241.58024787902832,1.8513202667236328,0.06628036499023438,20.755529403686523,20.821809768676758,23.60224723815918,159.3496799468994
1759169017.4524233,1759169017.5697546,209.6412181854248,1.9049644470214844,0.06580352783203125,20.677566528320312,20.743370056152344,24.82008934020996,138.11230659484863
1759169017.6622407,1759169017.79751,213.44327926635742,2.282381057739258,0.06580352783203125,20.239591598510742,20.305395126342773,23.64182472229004,136.7051601409912
1759169017.8758702,1759169018.0300884,227.10108757019043,1.1243820190429688,0.064849853515625,19.979000091552734,20.04384994506836,22.676706314086914,138.7770175933838
1759169018.1055744,1759169018.2618768,249.59063529968262,0.9357929229736328,0.06842613220214844,21.627426147460938,21.695852279663086,23.337602615356445,138.95058631896973
1759169018.3559942,1759169018.493769,230.49449920654297,1.837015151977539,0.06699562072753906,20.795345306396484,20.862340927124023,24.712562561035156,139.9524211883545
1759169018.5866847,1759169018.7241516,232.9869270324707,1.9364356994628906,0.06961822509765625,20.708799362182617,20.778417587280273,24.785280227661133,160.56370735168457
1759169018.8286133,1759169018.9804542,249.12476539611816,0.7817745208740234,0.064849853515625,21.833181381225586,21.89803123474121,23.769140243530273,139.40978050231934
1759169019.0782704,1759169019.2124114,226.4101505279541,1.8687248229980469,0.06747245788574219,20.29561996459961,20.36309242248535,23.324966430664062,139.14823532104492
1759169019.3086224,1759169019.4209971,223.95777702331543,0.5199909210205078,0.07152557373046875,24.26934242248535,24.34086799621582,25.829792022705078,118.34073066711426
1759169019.5346217,1759169019.6515737,229.53438758850098,0.4565715789794922,0.06914138793945312,24.072885513305664,24.142026901245117,25.339603424072266,140.05804061889648
1759169019.7643366,1759169019.880159,188.97032737731934,1.2180805206298828,0.06651878356933594,20.031213760375977,20.097732543945312,23.451805114746094,139.19329643249512
1759169019.9534838,1759169020.1131198,233.19315910339355,0.9984970092773438,0.06699562072753906,20.148515701293945,20.215511322021484,22.234439849853516,119.58575248718262
1759169020.1868074,1759169020.34453,229.43663597106934,1.7094612121582031,0.06723403930664062,20.343780517578125,20.411014556884766,22.943735122680664,139.06192779541016
1759169020.432635,1759169020.5784054,239.5765781402588,0.41604042053222656,0.06461143493652344,20.00570297241211,20.070314407348633,21.13652229309082,117.4626350402832
1759169020.6809628,1759169020.8317428,241.2891387939453,1.699686050415039,0.07367134094238281,20.070314407348633,20.143985748291016,22.522926330566406,137.76016235351562
1759169020.9317563,1759169021.0872495,248.2740879058838,0.38814544677734375,0.06437301635742188,20.0045108795166,20.068883895874023,21.178007125854492,117.78140068054199
1759169021.192623,1759169021.3408206,238.79504203796387,0.7228851318359375,0.06651878356933594,22.025108337402344,22.09162712097168,23.62823486328125,139.8155689239502
1759169021.431613,1759169021.5697286,231.0652732849121,1.0309219360351562,0.06508827209472656,21.70395851135254,21.769046783447266,25.17557144165039,159.96050834655762
1759169021.6628518,1759169021.7975957,209.88750457763672,2.2737979888916016,0.06723403930664062,20.241975784301758,20.3092098236084,24.558544158935547,160.07614135742188
1759169021.8737044,1759169022.0073137,226.96423530578613,0.461578369140625,0.06651878356933594,23.022890090942383,23.08940887451172,24.680614471435547,158.74052047729492
1759169022.1066594,1759169022.2436588,230.78346252441406,1.7130374908447266,0.06961822509765625,22.452592849731445,22.5222110748291,26.497840881347656,139.51849937438965
1759169022.3376389,1759169022.4726396,211.0440731048584,2.397775650024414,0.06580352783203125,20.224571228027344,20.290374755859375,24.79243278503418,137.87150382995605
1759169022.548863,1759169022.7061214,256.8325996398926,0.9183883666992188,0.06651878356933594,21.56853675842285,21.635055541992188,23.55194091796875,139.56069946289062
1759169022.8058317,1759169022.9387524,212.85009384155273,0.5743503570556641,0.06556510925292969,22.30238914489746,22.36795425415039,23.977279663085938,141.44277572631836
1759169023.0189006,1759169023.172851,250.3957748413086,0.6883144378662109,0.06699562072753906,29.041767120361328,29.108762741088867,30.731916427612305,182.19852447509766
1759169023.2694197,1759169023.4341137,274.5051383972168,0.8528232574462891,0.06389617919921875,20.279407501220703,20.343303680419922,21.836042404174805,120.12600898742676
1759169023.5440998,1759169023.663452,213.58489990234375,0.6988048553466797,0.06556510925292969,21.922588348388672,21.9881534576416,24.565935134887695,118.11327934265137
1759169023.7579172,1759169023.8929179,229.03966903686523,0.9324550628662109,0.0667572021484375,21.981000900268555,22.047758102416992,24.263620376586914,162.14656829833984
1759169023.99062,1759169024.1008878,223.85525703430176,0.7498264312744141,0.06747245788574219,23.789405822753906,23.85687828063965,26.46160125732422,137.69912719726562
1759169024.2177207,1759169024.331581,207.6563835144043,0.9891986846923828,0.06937980651855469,21.889925003051758,21.959304809570312,25.052547454833984,141.44492149353027
1759169024.4286206,1759169024.5629525,227.16212272644043,2.2764205932617188,0.06866455078125,20.32613754272461,20.39480209350586,24.73616600036621,140.4740810394287
1759169024.655959,1759169024.7942853,211.60531044006348,2.1147727966308594,0.0705718994140625,20.844697952270508,20.91526985168457,24.196147918701172,140.2122974395752
1759169024.867738,1759169025.0275328,234.5442771911621,0.39386749267578125,0.06508827209472656,21.713733673095703,21.77882194519043,22.939443588256836,140.70463180541992
1759169025.1117597,1759169025.3039298,267.4376964569092,0.6070137023925781,0.06580352783203125,20.17521858215332,20.24102210998535,22.035598754882812,116.81389808654785
1759169025.383211,1759169025.5367095,246.53100967407227,0.5764961242675781,0.06389617919921875,20.24364471435547,20.307540893554688,22.112131118774414,139.6467685699463
1759169025.6346128,1759169025.768371,248.19493293762207,1.760721206665039,0.064849853515625,20.587921142578125,20.65277099609375,24.10101890563965,136.53278350830078
1759169025.8829951,1759169025.9970813,336.3027572631836,0.32448768615722656,0.0705718994140625,26.560068130493164,26.630640029907227,28.557300567626953,116.21379852294922
1759169026.219468,1759169026.3366046,191.20049476623535,1.1475086212158203,0.06532669067382812,19.969940185546875,20.035266876220703,23.306846618652344,138.23914527893066
1759169026.4146574,1759169026.5684338,244.06766891479492,1.8589496612548828,0.06651878356933594,20.189762115478516,20.25628089904785,22.800445556640625,117.63787269592285
1759169026.6588945,1759169026.7959619,229.28261756896973,0.9098052978515625,0.064849853515625,21.714210510253906,21.77906036376953,23.38123321533203,159.84630584716797
1759169026.88835,1759169027.025531,229.3107509613037,2.2020339965820312,0.06723403930664062,20.355939865112305,20.423173904418945,24.464845657348633,158.19406509399414
1759169027.1178317,1759169027.2529547,230.96895217895508,1.9195079803466797,0.06604194641113281,20.684480667114258,20.75052261352539,24.91450309753418,157.52387046813965
1759169027.348981,1759169027.484746,233.72673988342285,2.3620128631591797,0.06723403930664062,20.61629295349121,20.68352699279785,24.98340606689453,159.24763679504395
1759169027.5866315,1759169027.7184513,229.0518283843994,0.8111000061035156,0.06842613220214844,21.839618682861328,21.908044815063477,25.118112564086914,139.9683952331543
1759169027.8159056,1759169027.948661,224.98726844787598,0.8647441864013672,0.07152557373046875,21.78668975830078,21.85821533203125,24.02019500732422,161.05055809020996
1759169028.041071,1759169028.1776533,211.61150932312012,1.1630058288574219,0.0667572021484375,20.215988159179688,20.282745361328125,22.66240119934082,138.62991333007812
1759169028.252851,1759169028.4098597,274.8277187347412,0.8864402770996094,0.064849853515625,21.573305130004883,21.638154983520508,24.410486221313477,159.0576171875
1759169028.5366127,1759169028.6673822,243.50786209106445,0.9918212890625,0.06556510925292969,20.17378807067871,20.23935317993164,23.208141326904297,137.86721229553223
1759169028.7803102,1759169028.8971186,209.66696739196777,0.9555816650390625,0.06604194641113281,21.558523178100586,21.62456512451172,23.145437240600586,139.4355297088623
1759169028.9901106,1759169029.128028,211.8682861328125,1.9555091857910156,0.06723403930664062,20.21312713623047,20.28036117553711,23.458480834960938,137.97807693481445
1759169029.2056255,1759169029.3394434,231.1244010925293,0.4165172576904297,0.06604194641113281,21.536827087402344,21.602869033813477,22.751808166503906,138.32736015319824
1759169029.4410062,1759169029.5940182,244.77529525756836,1.0128021240234375,0.06914138793945312,20.117521286010742,20.186662673950195,21.97265625,138.22340965270996
1759169029.6859603,1759169029.8257756,230.804443359375,0.9074211120605469,0.06723403930664062,20.022153854370117,20.089387893676758,23.09584617614746,137.31026649475098
1759169029.9177558,1759169030.0548973,230.2267551422119,0.9503364562988281,0.06556510925292969,21.69632911682129,21.76189422607422,23.380517959594727,157.56988525390625
1759169030.148159,1759169030.2885714,236.56177520751953,0.40912628173828125,0.06508827209472656,21.847009658813477,21.912097930908203,23.038625717163086,138.8111114501953
1759169030.3899784,1759169030.545484,229.08902168273926,0.4131793975830078,0.07081031799316406,20.07770538330078,20.148515701293945,21.26455307006836,117.76161193847656
1759169030.6286287,1759169030.7996438,265.3656005859375,0.40650367736816406,0.06628036499023438,21.500587463378906,21.56686782836914,22.661685943603516,139.0697956085205
1759169030.9066176,1759169031.0528545,240.06986618041992,1.1076927185058594,0.06580352783203125,19.983291625976562,20.049095153808594,22.07183837890625,139.01114463806152
1759169031.1469243,1759169031.2850845,229.69841957092285,0.6630420684814453,0.07081031799316406,20.66946029663086,20.740270614624023,23.561954498291016,139.38665390014648
1759169031.3768063,1759169031.516299,212.18204498291016,0.8060932159423828,0.06794929504394531,21.34394645690918,21.411895751953125,23.293256759643555,138.214111328125
1759169031.5930643,1759169031.7439725,222.59163856506348,0.5714893341064453,0.07224082946777344,22.627830505371094,22.700071334838867,24.47652816772461,159.76476669311523
1759169031.826018,1759169031.9772696,241.3179874420166,0.4291534423828125,0.06866455078125,21.938085556030273,22.006750106811523,22.93682098388672,138.2904052734375
1759169032.0675316,1759169032.2034159,230.7906150817871,2.3636817932128906,0.06842613220214844,20.124197006225586,20.192623138427734,24.43075180053711,157.6695442199707
1759169032.3017254,1759169032.4361737,228.94835472106934,0.5555152893066406,0.06985664367675781,22.543907165527344,22.6137638092041,25.209665298461914,160.17484664916992
1759169032.534704,1759169032.6711054,248.75545501708984,2.201557159423828,0.06890296936035156,20.136117935180664,20.205020904541016,23.77033233642578,163.00463676452637
1759169032.783663,1759169032.9000103,188.3983612060547,2.0585060119628906,0.06842613220214844,20.157814025878906,20.226240158081055,23.353099822998047,117.10023880004883
1759169032.9722414,1759169033.131678,231.99725151062012,0.5693435668945312,0.06532669067382812,20.08819580078125,20.153522491455078,21.99268341064453,138.29588890075684
1759169033.210666,1759169033.3633015,243.9558506011963,1.1320114135742188,0.07224082946777344,20.015716552734375,20.08795738220215,22.27616310119629,139.3716335296631
1759169033.454797,1759169033.594777,231.95910453796387,1.0766983032226562,0.06794929504394531,20.206451416015625,20.27440071105957,22.6442813873291,140.12837409973145
1759169033.6896665,1759169033.8289802,230.94916343688965,1.0004043579101562,0.06723403930664062,20.083189010620117,20.150423049926758,22.01676368713379,141.524076461792
1759169033.920795,1759169034.0553467,211.89641952514648,2.4499893188476562,0.06771087646484375,20.17807960510254,20.245790481567383,23.772001266479492,136.64841651916504
1759169034.1366687,1759169034.2907891,228.1057834625244,1.2240409851074219,0.06937980651855469,20.199298858642578,20.268678665161133,22.539615631103516,138.37027549743652
1759169034.3649514,1759169034.5249813,235.07428169250488,0.5960464477539062,0.06794929504394531,20.153045654296875,20.22099494934082,22.057294845581055,138.26680183410645
1759169034.6046185,1759169034.7567902,245.07689476013184,1.0471343994140625,0.06890296936035156,20.073413848876953,20.142316818237305,22.096872329711914,139.81080055236816
1759169034.8537035,1759169034.9871137,227.1726131439209,0.8742809295654297,0.07367134094238281,22.0639705657959,22.13764190673828,25.090456008911133,160.8734130859375
1759169035.0810509,1759169035.2188978,230.8199405670166,1.0099411010742188,0.06818771362304688,22.28379249572754,22.351980209350586,25.68960189819336,159.7583293914795
1759169035.3120499,1759169035.4490254,229.4931411743164,2.267122268676758,0.06604194641113281,20.214319229125977,20.28036117553711,23.563385009765625,158.7388515472412
1759169035.5417192,1759169035.679529,230.97658157348633,2.344369888305664,0.06604194641113281,20.138025283813477,20.20406723022461,24.9936580657959,159.55877304077148
1759169035.772877,1759169035.910939,231.2159538269043,1.1053085327148438,0.06580352783203125,21.800756454467773,21.866559982299805,24.921417236328125,159.64579582214355
1759169036.004266,1759169036.141072,233.40773582458496,1.0955333709716797,0.06699562072753906,21.645784378051758,21.712779998779297,24.675607681274414,158.66875648498535
1759169036.2378936,1759169036.3708155,228.8057804107666,2.2237300872802734,0.06628036499023438,22.412538528442383,22.478818893432617,26.292800903320312,141.33524894714355
1759169036.4668808,1759169036.6042833,234.8024845123291,1.1494159698486328,0.0782012939453125,21.332740783691406,21.41094207763672,23.150205612182617,139.37640190124512
1759169036.7056222,1759169036.836746,222.74160385131836,0.6129741668701172,0.06747245788574219,20.62225341796875,20.689725875854492,23.39935302734375,139.2679214477539
1759169036.9285538,1759169037.06383,212.42189407348633,0.5450248718261719,0.06866455078125,22.373199462890625,22.441864013671875,24.149179458618164,160.91203689575195
1759169037.1414711,1759169037.2925832,242.9671287536621,0.591278076171875,0.06890296936035156,22.231340408325195,22.300243377685547,25.227069854736328,158.0488681793213
1759169037.384628,1759169037.521592,231.04381561279297,0.9708404541015625,0.06556510925292969,21.54850959777832,21.61407470703125,24.842262268066406,137.56704330444336
1759169037.6158483,1759169037.7507038,231.82415962219238,0.9107589721679688,0.064849853515625,21.359682083129883,21.424531936645508,22.929906845092773,137.9721164703369
1759169037.8479066,1759169037.9816327,225.5716323852539,1.972198486328125,0.06556510925292969,20.069122314453125,20.134687423706055,23.207902908325195,138.97180557250977
1759169038.0736842,1759169038.211825,213.27733993530273,0.6260871887207031,0.07128715515136719,20.014286041259766,20.085573196411133,21.801471710205078,117.73896217346191
1759169038.290701,1759169038.442402,246.25658988952637,1.8165111541748047,0.06604194641113281,20.01190185546875,20.077943801879883,22.926807403564453,137.9392147064209
1759169038.5375252,1759169038.670113,247.15638160705566,0.44989585876464844,0.06914138793945312,22.410154342651367,22.47929573059082,23.818254470825195,138.95821571350098
1759169038.793619,1759169038.9248266,240.34833908081055,0.5750656127929688,0.06508827209472656,21.239519119262695,21.304607391357422,22.356510162353516,115.53168296813965
1759169039.0353127,1759169039.1530156,230.36551475524902,0.5190372467041016,0.07009506225585938,22.27306365966797,22.343158721923828,24.766206741333008,136.97528839111328
1759169039.2697098,1759169039.3838034,226.11641883850098,1.1761188507080078,0.06794929504394531,21.591901779174805,21.65985107421875,23.756027221679688,141.09182357788086
1759169039.4987023,1759169039.6138942,205.92617988586426,0.5562305450439453,0.07748603820800781,22.493362426757812,22.57084846496582,24.1391658782959,119.4305419921875
1759169039.704813,1759169039.8414595,212.85128593444824,1.308441162109375,0.06556510925292969,21.413803100585938,21.479368209838867,24.785280227661133,140.1047706604004
1759169039.9178379,1759169040.0723925,226.5918254852295,1.1949539184570312,0.06461143493652344,21.471023559570312,21.535634994506836,24.661540985107422,139.77789878845215
1759169040.1466587,1759169040.3003592,228.08504104614258,1.9717216491699219,0.06818771362304688,20.759105682373047,20.827293395996094,23.855209350585938,159.69347953796387
1759169040.3748808,1759169040.5333958,252.2451877593994,1.0340213775634766,0.06437301635742188,20.246267318725586,20.310640335083008,22.70793914794922,161.10682487487793
1759169040.6307087,1759169040.7643962,227.13470458984375,1.0428428649902344,0.0705718994140625,20.185470581054688,20.25604248046875,23.464679718017578,158.0052375793457
1759169040.8580213,1759169040.9984574,251.88851356506348,0.9429454803466797,0.07081031799316406,20.625829696655273,20.696640014648438,23.651838302612305,138.44561576843262
1759169041.110087,1759169041.2295573,233.59203338623047,0.7910728454589844,0.064849853515625,21.46434783935547,21.529197692871094,23.349761962890625,137.96353340148926
1759169041.343901,1759169041.459175,206.99119567871094,0.4839897155761719,0.06818771362304688,22.74632453918457,22.814512252807617,25.307416915893555,119.43960189819336
1759169041.5526652,1759169041.689941,233.01100730895996,0.5328655242919922,0.07915496826171875,24.57451820373535,24.65367317199707,26.19767189025879,121.67596817016602
1759169041.7858112,1759169041.9209728,228.24645042419434,0.6070137023925781,0.06890296936035156,22.45187759399414,22.520780563354492,25.525569915771484,140.28000831604004
1759169042.0176694,1759169042.1528823,248.51489067077637,0.5466938018798828,0.06842613220214844,22.411584854125977,22.480010986328125,24.957656860351562,161.5595817565918
1759169042.2672179,1759169042.3844404,231.04047775268555,0.8006095886230469,0.07009506225585938,21.903514862060547,21.973609924316406,23.683547973632812,159.48104858398438
1759169042.499291,1759169042.6157472,230.30948638916016,2.3572444915771484,0.07128715515136719,20.732879638671875,20.804166793823242,25.528907775878906,159.4102382659912
1759169042.7301145,1759169042.8465855,191.56789779663086,0.9741783142089844,0.06985664367675781,21.710634231567383,21.78049087524414,24.03712272644043,118.97087097167969
1759169042.921865,1759169043.0776045,229.81810569763184,1.9068717956542969,0.06794929504394531,20.49112319946289,20.559072494506836,24.460554122924805,118.9260482788086
1759169043.1518662,1759169043.3070097,226.88698768615723,2.2666454315185547,0.06699562072753906,20.016193389892578,20.083189010620117,23.0712890625,141.21723175048828
1759169043.378929,1759169043.537833,231.0948371887207,0.9546279907226562,0.0667572021484375,21.452903747558594,21.51966094970703,23.64659309387207,141.30616188049316
1759169043.6102226,1759169043.7682354,213.75226974487305,0.6303787231445312,0.064849853515625,21.685123443603516,21.74997329711914,23.412227630615234,140.3355598449707
1759169043.8241534,1759169043.976167,229.1238307952881,0.5450248718261719,0.06937980651855469,22.50194549560547,22.571325302124023,25.188922882080078,159.22164916992188
1759169044.053403,1759169044.2065556,242.76375770568848,0.9515285491943359,0.064849853515625,21.271467208862305,21.33631706237793,24.085521697998047,136.4119052886963
1759169044.2963324,1759169044.429544,225.88181495666504,1.7809867858886719,0.06437301635742188,20.435094833374023,20.499467849731445,24.42193031311035,155.79771995544434
1759169044.5223627,1759169044.6587136,232.56468772888184,0.5171298980712891,0.06222724914550781,20.09749412536621,20.15972137451172,21.768808364868164,134.20629501342773
1759169044.7550728,1759169044.8842342,200.8512020111084,0.5693435668945312,0.06413459777832031,20.04218101501465,20.10631561279297,21.734237670898438,135.5297565460205
1759169044.9605896,1759169045.1116269,240.38386344909668,0.7379055023193359,0.06437301635742188,21.342992782592773,21.407365798950195,22.72486686706543,136.00611686706543
1759169045.2010722,1759169045.3362,231.57691955566406,0.7970333099365234,0.06437301635742188,21.749258041381836,21.813631057739258,24.556636810302734,136.91043853759766
1759169045.4349575,1759169045.5659776,230.71980476379395,2.394437789916992,0.07224082946777344,20.31421661376953,20.386457443237305,24.701356887817383,141.13759994506836
1759169045.6659093,1759169045.797162,225.76475143432617,2.3581981658935547,0.06580352783203125,20.2023983001709,20.26820182800293,24.88112449645996,140.5346393585205
1759169045.8956964,1759169046.0275595,222.1660614013672,0.4906654357910156,0.06580352783203125,21.97265625,22.03845977783203,23.646116256713867,138.4871006011963
1759169046.1183097,1759169046.2549632,226.0911464691162,0.33164024353027344,0.06794929504394531,21.67057991027832,21.738529205322266,23.82373809814453,135.6792449951172
1759169046.3445613,1759169046.477441,229.11810874938965,0.7998943328857422,0.06365776062011719,21.579980850219727,21.643638610839844,24.425983428955078,157.71842002868652
1759169046.577617,1759169046.7082756,243.22986602783203,0.9107589721679688,0.06604194641113281,22.144317626953125,22.210359573364258,24.12247657775879,159.21258926391602
1759169046.8210397,1759169046.9358842,206.82311058044434,0.9186267852783203,0.06389617919921875,20.522356033325195,20.586252212524414,22.68695831298828,137.2828483581543
1759169047.0280144,1759169047.163539,229.6276092529297,0.9403228759765625,0.06890296936035156,20.039081573486328,20.10798454284668,22.985219955444336,136.41047477722168
1759169047.2578323,1759169047.391714,228.8501262664795,0.6959438323974609,0.06985664367675781,21.892309188842773,21.96216583251953,23.732423782348633,139.08791542053223
1759169047.4906209,1759169047.6235251,207.0322036743164,1.7936229705810547,0.06461143493652344,20.232200622558594,20.296812057495117,23.143529891967773,139.13393020629883
1759169047.697848,1759169047.8499362,227.0221710205078,0.4601478576660156,0.06651878356933594,23.133039474487305,23.19955825805664,25.70652961730957,158.15353393554688
1759169047.9275947,1759169048.0780094,261.93976402282715,1.9850730895996094,0.06628036499023438,20.19047737121582,20.256757736206055,23.93651008605957,156.94618225097656
1759169048.1896338,1759169048.304186,205.36255836486816,1.1065006256103516,0.06389617919921875,21.277904510498047,21.341800689697266,23.97775650024414,137.53581047058105
1759169048.398636,1759169048.5325108,224.7025966644287,2.02178955078125,0.06461143493652344,20.270586013793945,20.33519744873047,24.353504180908203,137.41612434387207
1759169048.6234825,1759169048.7579844,225.36444664001465,0.8053779602050781,0.06389617919921875,21.27552032470703,21.33941650390625,22.696495056152344,137.30835914611816
1759169048.8509412,1759169048.9851131,225.12030601501465,0.5300045013427734,0.0667572021484375,20.58887481689453,20.65563201904297,23.279905319213867,137.9711627960205
1759169049.0762022,1759169049.2093246,226.4559268951416,0.5307197570800781,0.06794929504394531,22.794008255004883,22.861957550048828,25.066852569580078,137.64095306396484
1759169049.302859,1759169049.4345822,203.40347290039062,2.0284652709960938,0.06461143493652344,20.21312713623047,20.277738571166992,24.10101890563965,135.02812385559082
1759169049.5076377,1759169049.663454,229.3248176574707,0.5037784576416016,0.06318092346191406,20.255327224731445,20.31850814819336,21.919965744018555,137.00151443481445
1759169049.737331,1759169049.8649058,221.30393981933594,0.6763935089111328,0.06794929504394531,24.133682250976562,24.201631546020508,26.696443557739258,135.31136512756348
1759169049.9588165,1759169050.0895703,223.18005561828613,1.6751289367675781,0.06604194641113281,20.486831665039062,20.552873611450195,24.309635162353516,155.93504905700684
1759169050.1820953,1759169050.3175666,246.14834785461426,1.4843940734863281,0.06580352783203125,20.530223846435547,20.596027374267578,23.78225326538086,157.61756896972656
1759169050.4283879,1759169050.5404332,185.2428913116455,0.8893013000488281,0.06318092346191406,21.31199836730957,21.375179290771484,23.277997970581055,134.429931640625
1759169050.6137776,1759169050.7676005,245.00274658203125,0.9448528289794922,0.06413459777832031,20.048856735229492,20.112991333007812,22.79806137084961,155.33733367919922
1759169050.8589218,1759169050.9932754,226.70912742614746,1.8677711486816406,0.06461143493652344,20.255327224731445,20.31993865966797,23.844003677368164,156.07190132141113
1759169051.0858126,1759169051.2187986,244.1709041595459,0.49996376037597656,0.06651878356933594,21.726608276367188,21.793127059936523,23.362398147583008,156.17942810058594
1759169051.3301256,1759169051.4436584,184.2632293701172,1.0073184967041016,0.06341934204101562,20.01500129699707,20.078420639038086,22.1707820892334,136.12127304077148
1759169051.514546,1759169051.67002,248.44980239868164,1.0099411010742188,0.06437301635742188,20.014286041259766,20.078659057617188,22.69911766052246,136.05308532714844
1759169051.7666228,1759169051.898926,226.0146141052246,0.9047985076904297,0.06413459777832031,20.116567611694336,20.180702209472656,22.917985916137695,135.30540466308594
1759169051.9927902,1759169052.1347418,234.07626152038574,0.5469322204589844,0.06318092346191406,20.319223403930664,20.382404327392578,21.991968154907227,142.15397834777832
1759169052.2309544,1759169052.3621209,221.8482494354248,0.9799003601074219,0.06866455078125,20.053863525390625,20.122528076171875,21.844863891601562,135.80632209777832
1759169052.4529612,1759169052.5915318,248.68035316467285,0.6699562072753906,0.06318092346191406,21.148204803466797,21.21138572692871,22.53580093383789,136.34634017944336
1759169052.7017958,1759169052.816365,204.91814613342285,1.7709732055664062,0.06461143493652344,19.949674606323242,20.014286041259766,22.459983825683594,157.64737129211426
1759169052.911607,1759169053.0457637,227.0965576171875,0.278472900390625,0.06365776062011719,21.317005157470703,21.38066291809082,22.090435028076172,113.42549324035645
1759169053.1398265,1759169053.3094728,264.85347747802734,0.3592967987060547,0.0667572021484375,28.065919876098633,28.13267707824707,30.039072036743164,167.6921844482422
1759169053.4048233,1759169053.5374775,225.1744270324707,2.2640228271484375,0.06341934204101562,20.222187042236328,20.285606384277344,24.660110473632812,156.37660026550293
1759169053.6301434,1759169053.7647943,225.84104537963867,0.8754730224609375,0.06270408630371094,20.171165466308594,20.233869552612305,22.927045822143555,157.3934555053711
1759169053.85718,1759169053.9909678,227.91719436645508,1.8191337585449219,0.064849853515625,20.240068435668945,20.30491828918457,24.063825607299805,156.29887580871582
1759169054.0886352,1759169054.2172568,224.2138385772705,1.8591880798339844,0.06532669067382812,20.32637596130371,20.39170265197754,23.936986923217773,156.21662139892578
1759169054.313272,1759169054.4426682,222.4099636077881,0.4837512969970703,0.06699562072753906,22.097349166870117,22.164344787597656,23.626089096069336,157.23919868469238
1759169054.5360668,1759169054.668982,224.10082817077637,1.2311935424804688,0.06699562072753906,21.471738815307617,21.538734436035156,23.69403839111328,137.50004768371582
1759169054.7603145,1759169054.8943453,204.90336418151855,1.0082721710205078,0.06413459777832031,20.00904083251953,20.07317543029785,22.945880889892578,136.08980178833008
1759169054.96536,1759169055.12233,250.71048736572266,1.4698505401611328,0.06341934204101562,20.192623138427734,20.25604248046875,22.428274154663086,137.2828483581543
1759169055.2205877,1759169055.3711956,259.6580982208252,1.7333030700683594,0.064849853515625,20.25127410888672,20.316123962402344,22.542476654052734,135.53237915039062
1759169055.4803886,1759169055.594374,208.24503898620605,1.9931793212890625,0.06413459777832031,20.543336868286133,20.607471466064453,23.29730987548828,135.4362964630127
1759169055.6888163,1759169055.820483,204.02765274047852,0.5357265472412109,0.06389617919921875,20.07913589477539,20.14303207397461,21.68726921081543,114.82810974121094
1759169055.8932488,1759169056.044885,243.68882179260254,1.829385757446289,0.06461143493652344,20.167112350463867,20.23172378540039,22.940635681152344,137.27855682373047
1759169056.1408472,1759169056.2708273,220.56841850280762,0.43582916259765625,0.06747245788574219,23.374080657958984,23.441553115844727,25.50029754638672,136.12127304077148
1759169056.361824,1759169056.4961107,246.18077278137207,0.6899833679199219,0.06723403930664062,21.61693572998047,21.68416976928711,24.330854415893555,158.20813179016113
1759169056.6106405,1759169056.723816,222.5813865661621,0.5609989166259766,0.06771087646484375,21.732091903686523,21.799802780151367,24.251461029052734,135.3776454925537
1759169056.8333635,1759169056.9473808,204.94771003723145,0.6999969482421875,0.06771087646484375,21.425485610961914,21.493196487426758,23.192405700683594,116.61767959594727
1759169057.038456,1759169057.1726124,207.43632316589355,0.9427070617675781,0.06389617919921875,20.17831802368164,20.24221420288086,22.066831588745117,136.50012016296387
1759169057.2495906,1759169057.3990395,240.27085304260254,0.9484291076660156,0.06318092346191406,20.100831985473633,20.164012908935547,23.11563491821289,155.012845993042
1759169057.4900017,1759169057.6252255,231.84657096862793,0.6952285766601562,0.06413459777832031,21.509647369384766,21.573781967163086,23.981571197509766,155.34186363220215
1759169057.722437,1759169057.8521855,240.1902675628662,1.4917850494384766,0.06747245788574219,21.403789520263672,21.471261978149414,23.893356323242188,134.83381271362305
1759169057.962768,1759169058.0768769,204.6797275543213,1.7726421356201172,0.06580352783203125,20.510435104370117,20.57623863220215,23.967504501342773,137.2053623199463
1759169058.1678474,1759169058.302969,225.35467147827148,0.9057521820068359,0.06794929504394531,22.212505340576172,22.280454635620117,24.10721778869629,118.05176734924316
1759169058.393347,1759169058.5273304,204.78272438049316,1.0614395141601562,0.06365776062011719,20.076274871826172,20.13993263244629,22.928714752197266,137.2065544128418
1759169058.6015913,1759169058.7533782,222.67627716064453,0.9782314300537109,0.06365776062011719,20.243406295776367,20.307064056396484,23.03290367126465,137.3307704925537
1759169058.8244143,1759169058.9797654,227.21624374389648,0.5691051483154297,0.06341934204101562,21.486997604370117,21.550416946411133,23.157119750976562,135.9119415283203
1759169059.056826,1759169059.2075365,241.03713035583496,1.6236305236816406,0.06437301635742188,20.235776901245117,20.30014991760254,22.90821075439453,135.9231472015381
1759169059.3016846,1759169059.43277,223.95062446594238,1.0378360748291016,0.06842613220214844,22.261619567871094,22.330045700073242,24.372339248657227,136.2471580505371
1759169059.525817,1759169059.65927,247.8165626525879,0.6690025329589844,0.06818771362304688,21.676301956176758,21.744489669799805,24.364948272705078,155.86423873901367
1759169059.7738159,1759169059.8849418,201.75838470458984,1.0008811950683594,0.06818771362304688,21.24929428100586,21.317481994628906,24.119138717651367,136.34610176086426
1759169059.9757185,1759169060.1111045,226.9113063812256,1.5964508056640625,0.06389617919921875,20.413875579833984,20.477771759033203,23.90742301940918,157.51385688781738
1759169060.2066696,1759169060.3386765,241.8813705444336,0.5674362182617188,0.06723403930664062,21.481990814208984,21.549224853515625,23.13709259033203,137.37940788269043
1759169060.4486964,1759169060.564312,205.34014701843262,0.8454322814941406,0.06914138793945312,20.118236541748047,20.1873779296875,22.850513458251953,137.24851608276367
1759169060.6541784,1759169060.790226,228.50418090820312,1.7044544219970703,0.06556510925292969,20.122289657592773,20.187854766845703,22.817134857177734,136.02519035339355
1759169060.8830743,1759169061.0162308,243.44682693481445,0.5271434783935547,0.06818771362304688,21.407127380371094,21.47531509399414,22.946596145629883,136.3661289215088
1759169061.126663,1759169061.2407458,207.97061920166016,1.9984245300292969,0.06508827209472656,20.168781280517578,20.233869552612305,23.203372955322266,137.18104362487793
1759169061.3348162,1759169061.467491,202.2559642791748,0.5860328674316406,0.06747245788574219,20.593643188476562,20.661115646362305,22.452831268310547,116.77408218383789
1759169061.5396352,1759169061.6934178,244.5688247680664,1.6622543334960938,0.06532669067382812,20.55811882019043,20.623445510864258,24.214506149291992,136.7049217224121
1759169061.784344,1759169061.916567,203.660249710083,1.810312271118164,0.06461143493652344,20.59459686279297,20.659208297729492,24.452686309814453,135.96487045288086
1759169061.988149,1759169062.1448007,226.70555114746094,0.5578994750976562,0.06318092346191406,20.10631561279297,20.169496536254883,21.675586700439453,116.62554740905762
1759169062.21967,1759169062.369737,222.9635715484619,1.6634464263916016,0.06413459777832031,20.131826400756836,20.195960998535156,22.853374481201172,137.3453140258789
1759169062.4466305,1759169062.595284,239.57347869873047,0.6120204925537109,0.06818771362304688,21.886348724365234,21.95453643798828,23.57935905456543,138.3838653564453
1759169062.6875908,1759169062.8218231,225.01277923583984,0.7493495941162109,0.06842613220214844,21.53611183166504,21.604537963867188,24.5053768157959,137.59803771972656
1759169062.9127474,1759169063.046919,208.88280868530273,1.1076927185058594,0.06437301635742188,20.132780075073242,20.197153091430664,23.183584213256836,136.6593837738037
1759169063.1217773,1759169063.2758331,245.07999420166016,0.39577484130859375,0.06270408630371094,21.346569061279297,21.409273147583008,22.41039276123047,137.2060775756836
1759169063.3765879,1759169063.5241678,256.62779808044434,0.6227493286132812,0.06389617919921875,21.58379554748535,21.64769172668457,23.826122283935547,135.7722282409668
1759169063.6333578,1759169063.746053,184.5264434814453,1.7273426055908203,0.06532669067382812,20.69830894470215,20.763635635375977,24.536609649658203,136.4293098449707
1759169063.8180285,1759169063.9731462,228.8224697113037,1.6722679138183594,0.06365776062011719,20.166635513305664,20.23029327392578,22.89128303527832,137.5727653503418
1759169064.0470343,1759169064.199533,243.53337287902832,0.6868839263916016,0.06461143493652344,21.437883377075195,21.50249481201172,22.86386489868164,136.52420043945312
1759169064.2907124,1759169064.4260354,226.14765167236328,1.9135475158691406,0.0667572021484375,20.052671432495117,20.119428634643555,22.774219512939453,156.2507152557373
1759169064.519635,1759169064.6537607,243.76583099365234,0.47850608825683594,0.06365776062011719,21.31056785583496,21.374225616455078,22.45473861694336,135.82825660705566
1759169064.7638395,1759169064.8798563,208.02712440490723,1.6582012176513672,0.06437301635742188,20.180463790893555,20.244836807250977,22.83310890197754,135.61534881591797
1759169064.9720635,1759169065.1043847,226.57060623168945,1.0085105895996094,0.06842613220214844,22.369861602783203,22.43828773498535,24.441242218017578,136.08169555664062
1759169065.198818,1759169065.3309162,225.8169651031494,0.48923492431640625,0.06723403930664062,21.509170532226562,21.576404571533203,23.830652236938477,156.28862380981445
1759169065.4248176,1759169065.5575457,244.41146850585938,1.8706321716308594,0.07319450378417969,20.226716995239258,20.299911499023438,23.941755294799805,158.17666053771973
1759169065.6693702,1759169065.7821388,204.70786094665527,1.5015602111816406,0.06699562072753906,22.151708602905273,22.218704223632812,24.58643913269043,138.5960578918457
1759169065.874224,1759169066.0092928,228.6379337310791,1.6505718231201172,0.06508827209472656,20.754098892211914,20.81918716430664,23.589134216308594,158.93983840942383
1759169066.106912,1759169066.2378314,224.76911544799805,1.4150142669677734,0.06699562072753906,20.537376403808594,20.604372024536133,24.135112762451172,136.11674308776855
1759169066.3318243,1759169066.464553,223.03152084350586,0.7774829864501953,0.06723403930664062,20.22719383239746,20.2944278717041,22.923707962036133,135.8966827392578
1759169066.5556636,1759169066.6903524,245.12052536010742,0.6358623504638672,0.06699562072753906,22.59206771850586,22.6590633392334,24.9783992767334,135.88809967041016
1759169066.800929,1759169066.9150512,205.11388778686523,0.9090900421142578,0.06437301635742188,20.112276077270508,20.17664909362793,22.186279296875,135.99467277526855
1759169067.0061853,1759169067.1412678,231.44960403442383,0.9722709655761719,0.06341934204101562,20.10345458984375,20.166873931884766,22.809982299804688,136.7177963256836
1759169067.2378175,1759169067.3677194,224.0581512451172,1.7185211181640625,0.07176399230957031,20.235300064086914,20.307064056396484,23.092269897460938,136.0189914703369
1759169067.46202,1759169067.5953078,223.76179695129395,0.8473396301269531,0.06413459777832031,20.091772079467773,20.155906677246094,22.832155227661133,137.68887519836426
1759169067.687589,1759169067.8215919,204.09226417541504,1.6071796417236328,0.06413459777832031,20.08843421936035,20.152568817138672,22.674560546875,135.2241039276123
1759169067.895605,1759169068.044985,245.0270652770996,0.6003379821777344,0.06699562072753906,22.139787673950195,22.206783294677734,24.955034255981445,157.83262252807617
1759169068.140816,1759169068.2714899,241.7128086090088,0.7083415985107422,0.06818771362304688,21.56686782836914,21.635055541992188,24.044036865234375,156.24594688415527
1759169068.38267,1759169068.4959967,204.4045925140381,0.9825229644775391,0.06413459777832031,20.510435104370117,20.574569702148438,23.226261138916016,136.11817359924316
1759169068.5905955,1759169068.7225175,222.22590446472168,1.7733573913574219,0.06508827209472656,20.021438598632812,20.08652687072754,22.927284240722656,135.54906845092773
1759169068.8129663,1759169068.948794,205.11817932128906,0.8187294006347656,0.06437301635742188,19.975900650024414,20.040273666381836,21.831750869750977,115.11421203613281
1759169069.018223,1759169069.17503,246.24872207641602,1.5571117401123047,0.06413459777832031,20.037412643432617,20.101547241210938,22.344589233398438,136.66749000549316
1759169069.2715964,1759169069.4230955,243.32332611083984,1.6353130340576172,0.06365776062011719,20.240068435668945,20.303726196289062,22.8726863861084,136.16371154785156
1759169069.515063,1759169069.647871,243.31068992614746,0.5533695220947266,0.06818771362304688,22.79353141784668,22.861719131469727,25.158405303955078,136.4908218383789
1759169069.7584715,1759169069.8723726,204.4961452484131,0.8983612060546875,0.06365776062011719,20.114898681640625,20.178556442260742,21.96788787841797,137.05801963806152
1759169069.9631124,1759169070.098442,226.67217254638672,1.3403892517089844,0.06365776062011719,20.164966583251953,20.22862434387207,23.62346649169922,154.58941459655762
1759169070.1899292,1759169070.3262098,246.24276161193848,0.5099773406982422,0.06389617919921875,21.198272705078125,21.262168884277344,22.427082061767578,134.7198486328125
1759169070.4396684,1759169070.5522056,202.22139358520508,0.6437301635742188,0.06628036499023438,21.352052688598633,21.418333053588867,23.090839385986328,136.13295555114746
1759169070.642032,1759169070.7764914,225.2061367034912,1.813650131225586,0.06413459777832031,20.08843421936035,20.152568817138672,22.653818130493164,136.97123527526855
1759169070.8673801,1759169071.000232,224.51090812683105,1.9412040710449219,0.06437301635742188,20.219802856445312,20.284175872802734,23.06652069091797,157.22179412841797
1759169071.0961788,1759169071.2273607,222.40233421325684,0.9074211120605469,0.06318092346191406,20.228862762451172,20.292043685913086,23.212671279907227,155.59124946594238
1759169071.3187246,1759169071.4546502,248.90565872192383,1.9266605377197266,0.06389617919921875,20.188570022583008,20.252466201782227,23.844003677368164,157.37605094909668
1759169071.5701396,1759169071.6833773,221.58122062683105,0.4730224609375,0.06747245788574219,20.57504653930664,20.642518997192383,23.351669311523438,115.264892578125
1759169071.7918193,1759169071.9072914,204.42533493041992,0.7145404815673828,0.06771087646484375,21.53468132019043,21.602392196655273,24.14393424987793,138.03434371948242
1759169071.9963903,1759169072.131179,209.23924446105957,0.8416175842285156,0.06723403930664062,21.567106246948242,21.634340286254883,24.317026138305664,137.3291015625
1759169072.2057765,1759169072.3590817,222.6848602294922,1.5835762023925781,0.06437301635742188,20.404815673828125,20.469188690185547,23.893356323242188,158.6155891418457
1759169072.4366271,1759169072.5865684,242.01059341430664,1.8520355224609375,0.06604194641113281,20.182132720947266,20.2481746673584,22.7353572845459,136.03615760803223
1759169072.6788213,1759169072.8132522,222.54109382629395,1.7383098602294922,0.07081031799316406,20.0347900390625,20.105600357055664,22.42755889892578,136.25669479370117
1759169072.9075882,1759169073.038938,240.614652633667,1.7333030700683594,0.064849853515625,20.236492156982422,20.301342010498047,22.520065307617188,134.16266441345215
1759169073.148346,1759169073.2629128,205.31296730041504,2.2592544555664062,0.06580352783203125,20.240068435668945,20.305871963500977,24.14870262145996,135.7731819152832
1759169073.3538055,1759169073.4868364,205.8541774749756,2.0287036895751953,0.06437301635742188,20.279407501220703,20.343780517578125,24.397611618041992,135.95223426818848
1759169073.5598056,1759169073.7153866,223.48999977111816,0.6043910980224609,0.06318092346191406,19.95396614074707,20.017147064208984,21.62957191467285,136.81435585021973
1759169073.7906272,1759169073.941078,259.48500633239746,0.6921291351318359,0.06389617919921875,21.14248275756836,21.206378936767578,22.380828857421875,135.4365348815918
1759169074.0502565,1759169074.1624668,183.9292049407959,1.7614364624023438,0.06437301635742188,20.565509796142578,20.6298828125,24.311304092407227,134.83238220214844
1759169074.2343323,1759169074.3902335,246.48690223693848,1.7049312591552734,0.064849853515625,20.29895782470703,20.363807678222656,23.009300231933594,136.98935508728027
1759169074.4846709,1759169074.6160223,223.96445274353027,0.6282329559326172,0.06341934204101562,21.476268768310547,21.539688110351562,23.050308227539062,136.86490058898926
1759169074.7088187,1759169074.84182,207.0302963256836,0.5390644073486328,0.06270408630371094,21.42024040222168,21.48294448852539,22.954225540161133,138.28444480895996
1759169074.9160275,1759169075.0678082,246.63543701171875,0.5807876586914062,0.06723403930664062,22.031307220458984,22.098541259765625,24.34706687927246,139.0094757080078
1759169075.1628952,1759169075.2978673,231.79125785827637,0.9973049163818359,0.07128715515136719,21.985530853271484,22.05681800842285,25.173425674438477,140.3486728668213
1759169075.3948786,1759169075.5307088,231.87661170959473,1.09100341796875,0.07748603820800781,22.0034122467041,22.08089828491211,24.069547653198242,141.8626308441162
1759169075.6280465,1759169075.7705848,238.4960651397705,0.6308555603027344,0.08606910705566406,22.853612899780273,22.939682006835938,24.973154067993164,144.49214935302734
1759169075.8696978,1759169076.0084746,235.63814163208008,0.820159912109375,0.07843971252441406,23.75650405883789,23.834943771362305,25.89726448059082,142.47894287109375
1759169076.1064832,1759169076.2493074,258.8973045349121,0.5862712860107422,0.091552734375,22.997617721557617,23.089170455932617,25.867700576782227,165.59815406799316
1759169076.3677015,1759169076.4872468,214.21217918395996,2.1185874938964844,0.08726119995117188,21.357297897338867,21.44455909729004,25.839805603027344,145.3866958618164
1759169076.5856252,1759169076.722885,249.58157539367676,0.4525184631347656,0.07009506225585938,22.6438045501709,22.713899612426758,24.075746536254883,142.70663261413574
1759169076.835346,1759169076.951228,209.3963623046875,0.4849433898925781,0.06961822509765625,23.682832717895508,23.752450942993164,25.39682388305664,141.94130897521973
1759169077.0449264,1759169077.181659,241.74809455871582,2.7539730072021484,0.08559226989746094,20.948171615600586,21.033763885498047,25.12073516845703,166.22567176818848
1759169077.290621,1759169077.419414,200.62494277954102,1.0709762573242188,0.07581710815429688,19.88840103149414,19.964218139648438,23.84471893310547,136.0936164855957
1759169077.4913979,1759169077.6473775,247.05266952514648,0.7295608520507812,0.0629425048828125,21.515369415283203,21.578311920166016,22.988557815551758,137.16888427734375
1759169077.738569,1759169077.8734484,225.71611404418945,1.931905746459961,0.06628036499023438,20.038604736328125,20.10488510131836,22.76921272277832,136.08098030090332
1759169077.9644306,1759169078.1005232,225.63910484313965,0.7596015930175781,0.06389617919921875,20.108699798583984,20.172595977783203,22.66716957092285,136.75165176391602
1759169078.1901662,1759169078.3247576,225.86393356323242,1.0790824890136719,0.06437301635742188,21.159648895263672,21.224021911621094,23.19645881652832,156.62240982055664
1759169078.4161696,1759169078.5489159,211.50708198547363,2.125978469848633,0.06461143493652344,20.247220993041992,20.311832427978516,24.687528610229492,157.52649307250977
1759169078.6278949,1759169078.7811537,228.78408432006836,1.905202865600586,0.06651878356933594,20.233869552612305,20.30038833618164,23.340225219726562,139.79792594909668
1759169078.8568952,1759169079.011609,246.80519104003906,0.8814334869384766,0.07987022399902344,21.419763565063477,21.4996337890625,23.052453994750977,138.38720321655273
1759169079.1038647,1759169079.2410233,229.02321815490723,1.7862319946289062,0.06580352783203125,20.501375198364258,20.56717872619629,23.29874038696289,160.0968837738037
1759169079.3330667,1759169079.4725282,243.38030815124512,2.190828323364258,0.06842613220214844,20.35999298095703,20.42841911315918,24.528026580810547,161.21816635131836
1759169079.5816078,1759169079.730709,238.78741264343262,0.36144256591796875,0.06413459777832031,19.938230514526367,20.002365112304688,21.05116844177246,116.5001392364502
1759169079.8259413,1759169079.9589741,243.7124252319336,1.5769004821777344,0.06818771362304688,21.463394165039062,21.53158187866211,24.09195899963379,136.42334938049316
1759169080.0707114,1759169080.1852157,225.38161277770996,0.8060932159423828,0.06842613220214844,22.82404899597168,22.892475128173828,25.62427520751953,136.57164573669434
1759169080.2962399,1759169080.4095616,183.93301963806152,0.9865760803222656,0.06437301635742188,19.99378204345703,20.058155059814453,22.968292236328125,135.39934158325195
1759169080.4803216,1759169080.6374753,255.4323673248291,1.6140937805175781,0.06532669067382812,20.01214027404785,20.07746696472168,22.397279739379883,116.21975898742676
1759169080.7359226,1759169080.8896823,244.4326877593994,0.9357929229736328,0.06413459777832031,20.229101181030273,20.293235778808594,23.32448959350586,138.05556297302246
1759169080.9805303,1759169081.1166587,228.9273738861084,2.364635467529297,0.0667572021484375,20.486831665039062,20.5535888671875,24.956226348876953,158.98466110229492
1759169081.2096486,1759169081.344327,207.6420783996582,0.8857250213623047,0.0629425048828125,21.548986434936523,21.611928939819336,24.729490280151367,136.90829277038574
1759169081.417465,1759169081.5756853,257.22694396972656,0.5893707275390625,0.06508827209472656,21.8508243560791,21.915912628173828,23.4830379486084,137.5870704650879
1759169081.6749332,1759169081.8064325,226.75180435180664,1.8918514251708984,0.06628036499023438,20.44510841369629,20.511388778686523,23.577213287353516,140.425443649292
1759169081.9019191,1759169082.037373,242.7842617034912,1.012563705444336,0.07271766662597656,22.11475372314453,22.187471389770508,25.12645721435547,142.3497200012207
1759169082.1449335,1759169082.2766492,225.10170936584473,0.6244182586669922,0.07128715515136719,22.23348617553711,22.304773330688477,24.899721145629883,142.3473358154297
1759169082.3701751,1759169082.5085824,190.20557403564453,1.0662078857421875,0.064849853515625,20.194053649902344,20.25890350341797,23.404598236083984,118.42513084411621
1759169082.5605664,1759169082.7393503,250.11777877807617,0.514984130859375,0.06341934204101562,20.229339599609375,20.29275894165039,22.068500518798828,117.60807037353516
1759169082.8155968,1759169082.9675102,261.9483470916748,1.8703937530517578,0.06556510925292969,20.069360733032227,20.134925842285156,22.494077682495117,137.06588745117188
1759169083.0776544,1759169083.2006817,257.99036026000977,0.5457401275634766,0.06413459777832031,32.97615051269531,33.04028511047363,34.1033935546875,180.0060272216797
