Timestamp,ArrivalTime,TotalTime(ms),WaitTime(ms),DecodeTime(ms),InferTime(ms),ServerComputeTime(ms),TotalServer(ms),Total
1759166231.2110186,1759166232.475342,1344.7415828704834,0.17547607421875,0.06604194641113281,69.35477256774902,69.42081451416016,70.0216293334961,99.51496124267578
1759166232.5687401,1759166232.63017,88.92226219177246,0.13899803161621094,0.06341934204101562,19.813060760498047,19.876480102539062,20.252466201782227,46.16999626159668
1759166232.6578321,1759166232.7205818,107.46264457702637,0.2334117889404297,0.06771087646484375,21.480798721313477,21.54850959777832,23.06365966796875,47.03211784362793
1759166232.7660935,1759166232.8113885,89.87236022949219,0.05745887756347656,0.07319450378417969,22.75848388671875,22.83167839050293,23.014068603515625,45.3183650970459
1759166232.856115,1759166232.9003797,89.51330184936523,0.6458759307861328,0.06914138793945312,20.046710968017578,20.11585235595703,22.37987518310547,65.68741798400879
1759166232.9463675,1759166232.9926026,93.26529502868652,0.4444122314453125,0.06866455078125,19.936084747314453,20.004749298095703,21.022319793701172,45.20225524902344
1759166233.0397804,1759166233.082465,67.19541549682617,0.20503997802734375,0.06794929504394531,19.78588104248047,19.853830337524414,20.482778549194336,45.416831970214844
1759166233.1109793,1759166233.1723933,119.95720863342285,0.1666545867919922,0.06437301635742188,28.537988662719727,28.60236167907715,28.98550033569336,53.93242835998535
1759166233.2310495,1759166233.2992606,96.90713882446289,0.1361370086669922,0.06413459777832031,20.111083984375,20.17521858215332,20.54762840270996,51.724910736083984
1759166233.3281097,1759166233.3885622,105.66425323486328,0.20837783813476562,0.06842613220214844,21.895170211791992,21.96359634399414,23.408889770507812,47.135353088378906
1759166233.4339473,1759166233.4786294,90.17586708068848,0.6556510925292969,0.06747245788574219,20.24245262145996,20.309925079345703,22.524595260620117,66.33853912353516
1759166233.5248914,1759166233.569712,89.52522277832031,1.4679431915283203,0.06985664367675781,19.89269256591797,19.962549209594727,21.87800407409668,45.96281051635742
1759166233.614572,1759166233.658945,89.08390998840332,0.32210350036621094,0.06699562072753906,20.292282104492188,20.359277725219727,21.107912063598633,64.61095809936523
1759166233.704435,1759166233.7484512,75.42681694030762,0.32448768615722656,0.06723403930664062,19.810199737548828,19.87743377685547,20.859241485595703,63.691139221191406
1759166233.7800074,1759166233.8378875,84.26117897033691,0.22935867309570312,0.06389617919921875,19.72365379333496,19.78754997253418,20.38097381591797,64.2857551574707
1759166233.8676293,1759166233.907286,88.28854560852051,0.1266002655029297,0.06818771362304688,20.353317260742188,20.421504974365234,21.97718620300293,65.3998851776123
1759166233.9560142,1759166233.997754,105.17764091491699,0.1506805419921875,0.06771087646484375,21.20518684387207,21.272897720336914,21.684646606445312,45.10974884033203
1759166234.0613341,1759166234.0867608,69.1368579864502,0.2601146697998047,0.06747245788574219,20.356178283691406,20.42365074157715,22.042274475097656,46.55814170837402
1759166234.1306212,1759166234.174972,89.80321884155273,0.20599365234375,0.06890296936035156,21.826505661010742,21.895408630371094,22.417306900024414,45.82524299621582
1759166234.220866,1759166234.2687776,96.8017578125,0.164031982421875,0.09250640869140625,20.589351654052734,20.68185806274414,22.284746170043945,67.96526908874512
1759166234.3178012,1759166234.357957,85.03103256225586,0.04172325134277344,0.06699562072753906,22.714614868164062,22.7816104888916,23.061513900756836,44.91400718688965
1759166234.4029768,1759166234.4471452,88.9286994934082,0.6606578826904297,0.06747245788574219,19.86217498779297,19.92964744567871,20.963430404663086,64.12625312805176
1759166234.492821,1759166234.537082,89.15400505065918,0.6043910980224609,0.06699562072753906,19.942045211791992,20.00904083251953,22.138595581054688,65.46473503112793
1759166234.5821166,1759166234.6272666,92.51713752746582,1.2862682342529297,0.06580352783203125,19.986867904663086,20.052671432495117,21.55137062072754,65.47808647155762
1759166234.6750603,1759166234.7185786,107.72013664245605,0.19884109497070312,0.06914138793945312,20.6451416015625,20.714282989501953,22.288084030151367,65.86408615112305
1759166234.7829201,1759166234.8082736,69.01931762695312,0.24008750915527344,0.06937980651855469,20.37835121154785,20.447731018066406,21.991729736328125,46.58675193786621
1759166234.8545954,1759166234.8973224,94.37274932861328,0.04291534423828125,0.06842613220214844,23.662328720092773,23.730754852294922,24.02329444885254,45.81952095031738
1759166234.9536104,1759166235.0125415,90.29650688171387,0.1468658447265625,0.06532669067382812,20.079851150512695,20.145177841186523,20.624637603759766,46.497344970703125
1759166235.0466428,1759166235.1057863,88.15717697143555,0.15115737915039062,0.06747245788574219,19.94490623474121,20.012378692626953,20.432710647583008,46.814918518066406
1759166235.134932,1759166235.1988528,114.75276947021484,0.25463104248046875,0.08678436279296875,19.89293098449707,19.97971534729004,20.50614356994629,47.81484603881836
1759166235.2536435,1759166235.2918582,88.07802200317383,0.16427040100097656,0.06747245788574219,19.961118698120117,20.02859115600586,20.633697509765625,65.40703773498535
1759166235.3466613,1759166235.3854897,84.33175086975098,0.17595291137695312,0.072479248046875,19.961118698120117,20.033597946166992,20.609617233276367,65.21296501159668
1759166235.4436467,1759166235.4992151,84.68270301818848,0.4112720489501953,0.08416175842285156,20.168781280517578,20.25294303894043,21.247386932373047,66.24937057495117
1759166235.5368993,1759166235.5945523,90.15560150146484,0.3974437713623047,0.08845329284667969,20.310640335083008,20.399093627929688,21.45075798034668,67.67058372497559
1759166235.6316817,1759166235.6899188,88.38725090026855,0.2219676971435547,0.07319450378417969,20.004749298095703,20.077943801879883,20.797252655029297,65.28449058532715
1759166235.7276852,1759166235.7834232,81.7265510559082,0.24199485778808594,0.07343292236328125,20.05457878112793,20.12801170349121,20.9805965423584,65.3684139251709
1759166235.821705,1759166235.8794918,86.2889289855957,0.3857612609863281,0.09012222290039062,20.322084426879883,20.412206649780273,21.385908126831055,66.51949882507324
1759166235.9126422,1759166235.9750445,93.93858909606934,0.32067298889160156,0.07963180541992188,20.53236961364746,20.612001419067383,21.579504013061523,66.67089462280273
1759166236.011279,1759166236.0700777,82.98707008361816,0.2830028533935547,0.0743865966796875,20.058631896972656,20.133018493652344,20.93219757080078,65.74225425720215
1759166236.1014974,1759166236.1434016,88.6077880859375,0.1685619354248047,0.0743865966796875,20.07889747619629,20.153284072875977,20.690202713012695,65.47331809997559
1759166236.1902518,1759166236.2153394,94.05636787414551,0.044345855712890625,0.09012222290039062,22.455930709838867,22.546052932739258,22.984027862548828,65.65093994140625
1759166236.2876713,1759166236.3089888,85.59632301330566,0.04076957702636719,0.06794929504394531,21.903276443481445,21.97122573852539,22.266864776611328,63.94648551940918
1759166236.3736482,1759166236.3998814,89.65134620666504,1.3880729675292969,0.07009506225585938,20.00737190246582,20.07746696472168,21.6829776763916,46.91958427429199
1759166236.463448,1759166236.4869325,49.399614334106445,0.04100799560546875,0.06699562072753906,24.088144302368164,24.155139923095703,24.295806884765625,46.680450439453125
1759166236.5129945,1759166236.5755112,86.40503883361816,0.5986690521240234,0.06747245788574219,19.846200942993164,19.913673400878906,21.097421646118164,82.52620697021484
1759166236.6044905,1759166236.666689,89.59484100341797,0.22721290588378906,0.06413459777832031,19.845247268676758,19.909381866455078,20.508289337158203,65.38677215576172
1759166236.6986048,1759166236.7576902,104.25424575805664,1.2967586517333984,0.06604194641113281,19.9127197265625,19.978761672973633,21.491289138793945,66.06626510620117
1759166236.8059795,1759166236.8492608,108.24751853942871,0.20074844360351562,0.07414817810058594,20.508527755737305,20.58267593383789,21.294116973876953,66.09869003295898
1759166236.9206462,1759166236.9416893,84.15412902832031,0.04076957702636719,0.06747245788574219,20.46060562133789,20.528078079223633,20.821332931518555,63.70949745178223
1759166237.0076864,1759166237.0351257,93.98651123046875,0.06651878356933594,0.10538101196289062,21.790742874145508,21.8961238861084,22.261619567871094,65.12331962585449
1759166237.1066127,1759166237.1487598,100.31437873840332,0.15020370483398438,0.06413459777832031,19.86551284790039,19.92964744567871,20.42865753173828,64.27907943725586
1759166237.2070963,1759166237.2599895,82.85307884216309,0.2334117889404297,0.06508827209472656,19.858121871948242,19.92321014404297,20.598649978637695,64.2852783203125
1759166237.2941592,1759166237.3510766,87.0821475982666,0.2338886260986328,0.06437301635742188,19.840002059936523,19.904375076293945,20.542383193969727,63.726186752319336
1759166237.3866637,1759166237.4457104,87.74924278259277,0.29921531677246094,0.09369850158691406,20.410776138305664,20.504474639892578,21.413087844848633,67.55805015563965
1759166237.4886281,1759166237.5205438,78.31764221191406,0.15020370483398438,0.07200241088867188,19.934654235839844,20.006656646728516,20.474672317504883,65.00744819641113
1759166237.5756214,1759166237.6327946,105.26490211486816,1.3632774353027344,0.06580352783203125,19.934415817260742,20.000219345092773,21.580934524536133,65.87076187133789
1759166237.6845927,1759166237.7245727,103.32465171813965,0.20360946655273438,0.06818771362304688,20.354747772216797,20.422935485839844,21.876096725463867,46.42224311828613
1759166237.7880602,1759166237.8138766,69.2899227142334,0.2601146697998047,0.06866455078125,20.321369171142578,20.390033721923828,22.043228149414062,46.846866607666016
1759166237.8574922,1759166237.9019706,89.41340446472168,0.21457672119140625,0.09083747863769531,21.72565460205078,21.816492080688477,22.347211837768555,45.972585678100586
1759166237.9470456,1759166237.99125,89.02215957641602,0.5614757537841797,0.06651878356933594,20.008087158203125,20.07460594177246,21.878480911254883,65.21844863891602
1759166238.0362082,1759166238.0810187,68.85123252868652,1.3210773468017578,0.06580352783203125,19.842147827148438,19.90795135498047,21.520614624023438,65.35553932189941
1759166238.1094973,1759166238.1717203,90.39568901062012,0.13685226440429688,0.06270408630371094,19.743680953979492,19.806385040283203,20.16615867614746,45.02248764038086
1759166238.200034,1759166238.2625434,89.93339538574219,0.13875961303710938,0.06723403930664062,21.92974090576172,21.99697494506836,22.511720657348633,46.19097709655762
1759166238.2936294,1759166238.352591,85.2656364440918,0.1404285430908203,0.06771087646484375,21.553516387939453,21.621227264404297,23.070812225341797,46.74220085144043
1759166238.37904,1759166238.4407873,91.91131591796875,0.03814697265625,0.06651878356933594,24.00970458984375,24.076223373413086,24.228811264038086,26.508569717407227
1759166238.471095,1759166238.5301352,84.95330810546875,0.03743171691894531,0.06580352783203125,24.13773536682129,24.20353889465332,24.356365203857422,26.263713836669922
1759166238.5586345,1759166238.6197503,90.28506278991699,0.03790855407714844,0.0667572021484375,23.879289627075195,23.946046829223633,24.096965789794922,26.3516902923584
1759166238.6490638,1759166238.7097986,86.23790740966797,0.040531158447265625,0.06723403930664062,23.75340461730957,23.82063865661621,23.97608757019043,26.4437198638916
1759166238.7354019,1759166238.7977922,89.12181854248047,0.5092620849609375,0.06699562072753906,19.84691619873047,19.913911819458008,22.037267684936523,83.49776268005371
1759166238.8294854,1759166238.889076,109.3752384185791,0.1220703125,0.06008148193359375,19.72055435180664,19.780635833740234,20.191192626953125,83.78124237060547
1759166238.9475996,1759166239.0008812,76.5070915222168,0.22554397583007812,0.06365776062011719,19.797563552856445,19.861221313476562,20.44677734375,63.3087158203125
1759166239.0307586,1759166239.070224,84.08021926879883,0.14925003051757812,0.0629425048828125,19.79684829711914,19.859790802001953,20.35379409790039,63.512325286865234
1759166239.1195884,1759166239.1593556,85.29806137084961,0.15115737915039062,0.06365776062011719,19.820451736450195,19.884109497070312,20.374536514282227,63.59553337097168
1759166239.2094839,1759166239.2699888,86.36951446533203,0.3859996795654297,0.064849853515625,21.050691604614258,21.115541458129883,21.741628646850586,65.63448905944824
1759166239.300589,1759166239.3612378,106.04643821716309,0.1804828643798828,0.06413459777832031,19.863605499267578,19.9277400970459,20.321369171142578,45.43614387512207
1759166239.4070628,1759166239.4516172,89.83397483825684,0.12946128845214844,0.07009506225585938,20.33209800720215,20.402193069458008,20.83873748779297,66.0257339477539
1759166239.501086,1759166239.5404809,86.58099174499512,0.04291534423828125,0.0667572021484375,22.660017013549805,22.726774215698242,23.036718368530273,44.90208625793457
1759166239.588205,1759166239.6315103,106.79054260253906,0.1544952392578125,0.06937980651855469,21.387338638305664,21.45671844482422,21.87323570251465,45.098304748535156
1759166239.6951373,1759166239.720506,68.99356842041016,0.26154518127441406,0.06914138793945312,20.324230194091797,20.39337158203125,21.97098731994629,46.428680419921875
1759166239.7676342,1759166239.809342,86.4419937133789,0.06270408630371094,0.06794929504394531,22.710800170898438,22.778749465942383,22.957563400268555,46.65040969848633
1759166239.858068,1759166239.8991954,86.09747886657715,0.04076957702636719,0.06699562072753906,22.778749465942383,22.845745086669922,23.12922477722168,44.946908950805664
1759166239.944307,1759166239.9881284,88.94491195678711,0.6442070007324219,0.0667572021484375,20.074844360351562,20.1416015625,22.309303283691406,65.31524658203125
1759166240.0333962,1759166240.0784771,92.45634078979492,1.271963119506836,0.06508827209472656,19.974231719970703,20.03931999206543,21.524667739868164,65.73796272277832
1759166240.129903,1759166240.1704621,104.27713394165039,0.2040863037109375,0.06890296936035156,20.39790153503418,20.46680450439453,22.032499313354492,65.70172309875488
1759166240.2343242,1759166240.260179,69.54813003540039,0.26106834411621094,0.0743865966796875,20.25914192199707,20.333528518676758,21.902799606323242,46.57244682312012
1759166240.3040164,1759166240.348662,89.51425552368164,0.20885467529296875,0.07200241088867188,21.63076400756836,21.70276641845703,23.143529891967773,46.948909759521484
1759166240.3942597,1759166240.4390488,91.37344360351562,0.047206878662109375,0.06628036499023438,22.809505462646484,22.87578582763672,23.18596839904785,45.134544372558594
1759166240.4861717,1759166240.5288155,90.89446067810059,0.04220008850097656,0.06723403930664062,22.804737091064453,22.871971130371094,23.14901351928711,44.91424560546875
1759166240.577195,1759166240.6221097,109.82370376586914,0.1544952392578125,0.09441375732421875,22.08113670349121,22.17555046081543,22.601842880249023,45.945167541503906
1759166240.6910813,1759166240.712746,88.55223655700684,0.04601478576660156,0.06556510925292969,21.60167694091797,21.6672420501709,21.977663040161133,44.45242881774902
1759166240.779966,1759166240.8030157,89.70999717712402,0.04124641418457031,0.06818771362304688,21.058082580566406,21.126270294189453,21.4080810546875,63.34567070007324
1759166240.8697772,1759166240.8926306,88.85622024536133,0.04124641418457031,0.06914138793945312,21.064043045043945,21.1331844329834,21.41427993774414,63.533782958984375
1759166240.9593468,1759166240.9818506,85.96301078796387,0.04029273986816406,0.06651878356933594,21.512269973754883,21.57878875732422,21.870851516723633,63.28129768371582
1759166241.0476348,1759166241.0716732,90.42215347290039,0.041484832763671875,0.07176399230957031,21.483898162841797,21.555662155151367,21.851539611816406,63.239336013793945
1759166241.1381824,1759166241.1610851,89.49065208435059,0.0400543212890625,0.06723403930664062,21.631479263305664,21.698713302612305,21.985769271850586,63.30275535583496
1759166241.227773,1759166241.250614,86.38477325439453,0.041484832763671875,0.06723403930664062,21.543502807617188,21.610736846923828,21.903038024902344,63.26103210449219
1759166241.3180342,1759166241.3406267,85.89458465576172,0.04172325134277344,0.06842613220214844,21.241426467895508,21.309852600097656,21.596431732177734,63.562631607055664
1759166241.404274,1759166241.4299653,89.4157886505127,0.17762184143066406,0.06747245788574219,21.33321762084961,21.40069007873535,21.7132568359375,46.51975631713867
1759166241.4966743,1759166241.5194075,86.13872528076172,0.039577484130859375,0.07343292236328125,21.62957191467285,21.703004837036133,21.98624610900879,63.43221664428711
1759166241.5855925,1759166241.608953,86.64345741271973,0.040531158447265625,0.06866455078125,21.352291107177734,21.420955657958984,21.715402603149414,62.99400329589844
1759166241.6726937,1759166241.6984165,88.97900581359863,1.3263225555419922,0.06890296936035156,20.383358001708984,20.452260971069336,22.02129364013672,46.936750411987305
1759166241.7618139,1759166241.7860205,50.17852783203125,0.125885009765625,0.06747245788574219,23.627758026123047,23.69523048400879,24.216890335083008,47.59550094604492
1759166241.8121347,1759166241.8760066,88.93132209777832,0.5898475646972656,0.06866455078125,19.899368286132812,19.968032836914062,22.1560001373291,65.16814231872559
1759166241.9055068,1759166241.967249,107.34772682189941,0.17595291137695312,0.06270408630371094,19.886016845703125,19.948720932006836,20.33710479736328,45.49527168273926
1759166242.0169065,1759166242.057819,104.55918312072754,0.202178955078125,0.06914138793945312,20.587921142578125,20.657062530517578,22.08733558654785,46.83327674865723
1759166242.12162,1759166242.1474702,69.09775733947754,0.5233287811279297,0.07343292236328125,19.92511749267578,19.998550415039062,20.92146873474121,45.624732971191406
1759166242.1908596,1759166242.2364855,69.00262832641602,0.17309188842773438,0.06437301635742188,19.825220108032227,19.88959312438965,20.2944278717041,45.4411506652832
1759166242.26459,1759166242.3258562,85.29448509216309,0.1380443572998047,0.06365776062011719,19.792556762695312,19.85621452331543,20.22552490234375,44.68274116516113
1759166242.3501801,1759166242.415082,91.45998954772949,0.13780593872070312,0.06413459777832031,19.81830596923828,19.8824405670166,20.255327224731445,45.07327079772949
1759166242.4417856,1759166242.5033138,106.65702819824219,0.21195411682128906,0.06794929504394531,21.952152252197266,22.02010154724121,23.432016372680664,46.788930892944336
1759166242.548994,1759166242.5937314,93.06550025939941,0.04649162292480469,0.06651878356933594,22.580385208129883,22.64690399169922,22.963762283325195,44.83389854431152
1759166242.642185,1759166242.6834266,85.78109741210938,0.042438507080078125,0.07367134094238281,22.751808166503906,22.82547950744629,23.10919761657715,44.756412506103516
1759166242.7281287,1759166242.7722843,88.87290954589844,0.6103515625,0.07271766662597656,19.933462142944336,20.006179809570312,22.11761474609375,65.44828414916992
1759166242.8171446,1759166242.8624752,92.52166748046875,1.2671947479248047,0.06508827209472656,19.919395446777344,19.98448371887207,21.466493606567383,65.66262245178223
1759166242.9100754,1759166242.931696,89.34521675109863,0.04267692565917969,0.06651878356933594,21.51656150817871,21.583080291748047,21.87657356262207,63.279151916503906
1759166242.9995446,1759166243.0212667,85.05725860595703,0.04029273986816406,0.06723403930664062,21.24762535095215,21.31485939025879,21.599531173706055,63.111066818237305
1759166243.0847445,1759166243.1103299,69.12112236022949,0.255584716796875,0.06961822509765625,20.294189453125,20.363807678222656,21.952152252197266,46.547889709472656
1759166243.1540084,1759166243.1984704,89.09273147583008,0.42319297790527344,0.06842613220214844,21.26789093017578,21.33631706237793,23.003101348876953,46.6611385345459
1759166243.2432427,1759166243.2877405,73.05574417114258,0.6206035614013672,0.06794929504394531,19.793272018432617,19.861221313476562,20.932674407958984,64.38541412353516
1759166243.316434,1759166243.356911,103.63578796386719,0.1533031463623047,0.06937980651855469,19.76633071899414,19.835710525512695,20.397663116455078,64.79144096374512
1759166243.4202123,1759166243.4455245,50.67896842956543,0.20647048950195312,0.06651878356933594,19.79827880859375,19.864797592163086,20.487308502197266,46.26870155334473
1759166243.4710343,1759166243.5332673,89.81728553771973,0.10156631469726562,0.06747245788574219,22.605180740356445,22.672653198242188,23.97632598876953,46.82445526123047
1759166243.5609944,1759166243.6238961,107.62667655944824,0.1475811004638672,0.06723403930664062,22.708892822265625,22.776126861572266,23.058176040649414,26.578903198242188
1759166243.6687636,1759166243.713123,89.08700942993164,0.41222572326660156,0.06771087646484375,20.23029327392578,20.298004150390625,21.133899688720703,64.4376277923584
1759166243.758757,1759166243.8028557,89.28298950195312,0.6346702575683594,0.07200241088867188,20.261764526367188,20.33376693725586,22.237300872802734,65.39082527160645
1759166243.8481824,1759166243.8933616,90.47961235046387,0.34117698669433594,0.06389617919921875,20.9808349609375,21.04473114013672,21.55137062072754,65.86217880249023
1759166243.943508,1759166243.984813,108.89291763305664,0.12350082397460938,0.06628036499023438,19.728899002075195,19.79517936706543,20.14303207397461,63.620567321777344
1759166244.0525274,1759166244.074405,84.99503135681152,0.04220008850097656,0.07581710815429688,21.3468074798584,21.422624588012695,21.711111068725586,63.02356719970703
1759166244.1396072,1759166244.164617,90.06929397583008,0.04076957702636719,0.06842613220214844,21.2554931640625,21.32391929626465,21.60930633544922,63.21406364440918
1759166244.2297776,1759166244.254164,90.90185165405273,0.03933906555175781,0.06699562072753906,21.6062068939209,21.673202514648438,21.954774856567383,63.61699104309082
1759166244.3212225,1759166244.3455954,105.99684715270996,0.14138221740722656,0.07224082946777344,19.961833953857422,20.034074783325195,20.397424697875977,63.24362754821777
1759166244.4273653,1759166244.4294612,30.815601348876953,0.016927719116210938,0.07367134094238281,24.5664119720459,24.64008331298828,24.739980697631836,25.813817977905273
1759166244.4583263,1759166244.519457,91.56203269958496,0.03790855407714844,0.07224082946777344,24.144887924194336,24.21712875366211,24.367570877075195,26.275634765625
1759166244.550031,1759166244.6091182,85.09564399719238,0.03814697265625,0.06723403930664062,24.253368377685547,24.320602416992188,24.47986602783203,26.532888412475586
1759166244.6375933,1759166244.6989007,89.04004096984863,0.03838539123535156,0.06747245788574219,23.958921432495117,24.02639389038086,24.176597595214844,26.364803314208984
1759166244.7267783,1759166244.7895207,107.87773132324219,0.1461505889892578,0.06818771362304688,22.905588150024414,22.97377586364746,23.255109786987305,26.50761604309082
1759166244.8347986,1759166244.8791683,71.11620903015137,0.6301403045654297,0.06747245788574219,20.018577575683594,20.086050033569336,22.094011306762695,65.60349464416504
1759166244.9106045,1759166244.9709964,106.0628890991211,0.16307830810546875,0.06389617919921875,19.75083351135254,19.814729690551758,20.206689834594727,45.59683799743652
1759166245.0215888,1759166245.0608976,85.26277542114258,0.15425682067871094,0.06318092346191406,19.706249237060547,19.76943016052246,20.12348175048828,63.44771385192871
1759166245.1070302,1759166245.150714,107.9561710357666,0.19598007202148438,0.06842613220214844,20.290136337280273,20.358562469482422,20.982027053833008,65.24848937988281
1759166245.2206335,1759166245.2424195,104.18272018432617,0.15211105346679688,0.07128715515136719,20.302295684814453,20.37358283996582,20.745515823364258,63.72475624084473
1759166245.3249583,1759166245.3270864,28.02133560180664,0.016927719116210938,0.06723403930664062,24.182796478271484,24.250030517578125,24.352550506591797,25.449037551879883
1759166245.3531218,1759166245.4154217,94.50817108154297,0.5497932434082031,0.06747245788574219,19.8822021484375,19.949674606323242,22.172927856445312,83.6479663848877
1759166245.4477713,1759166245.486911,106.30059242248535,0.12111663818359375,0.06127357482910156,19.795656204223633,19.856929779052734,20.2023983001709,64.0411376953125
1759166245.5576296,1759166245.578554,102.42581367492676,0.14162063598632812,0.06818771362304688,19.89579200744629,19.963979721069336,20.325660705566406,63.124895095825195
1759166245.6602201,1759166245.6628041,30.412673950195312,0.017404556274414062,0.06794929504394531,24.158954620361328,24.226903915405273,24.328947067260742,25.87127685546875
1759166245.6907797,1759166245.752063,87.42833137512207,0.03838539123535156,0.06604194641113281,24.39713478088379,24.463176727294922,24.61862564086914,26.539087295532227
1759166245.7783535,1759166245.8408659,90.72470664978027,0.5507469177246094,0.06771087646484375,19.950389862060547,20.01810073852539,21.340370178222656,83.67776870727539
1759166245.869174,1759166245.89174,104.38227653503418,0.1404285430908203,0.06747245788574219,19.960880279541016,20.028352737426758,20.387887954711914,63.14277648925781
1759166245.9736998,1759166245.9757848,28.004884719848633,0.0171661376953125,0.06651878356933594,24.207353591918945,24.27387237548828,24.380207061767578,25.47454833984375
1759166246.0018473,1759166246.0647137,93.99652481079102,0.5815029144287109,0.06771087646484375,19.89293098449707,19.960641860961914,22.191524505615234,84.20205116271973
1759166246.0963476,1759166246.135419,88.90676498413086,0.1499652862548828,0.06341934204101562,19.782066345214844,19.84548568725586,20.3249454498291,63.32659721374512
1759166246.1895888,1759166246.2251568,83.09149742126465,0.15783309936523438,0.0667572021484375,20.094871520996094,20.16162872314453,20.6906795501709,64.4681453704834
1759166246.2757308,1759166246.3181763,95.80516815185547,0.14257431030273438,0.06318092346191406,21.29387855529785,21.357059478759766,21.817684173583984,68.11690330505371
1759166246.37171,1759166246.432123,88.64355087280273,0.1876354217529297,0.06198883056640625,19.827842712402344,19.88983154296875,20.489931106567383,64.84222412109375
1759166246.4604971,1759166246.502246,105.90767860412598,0.19073486328125,0.07367134094238281,20.740270614624023,20.813941955566406,21.26145362854004,65.96922874450684
1759166246.5670016,1759166246.5931797,92.63134002685547,0.05507469177246094,0.06604194641113281,21.09503746032715,21.16107940673828,21.35920524597168,43.5175895690918
1759166246.6598237,1759166246.6825776,88.23752403259277,0.04076957702636719,0.06723403930664062,21.188735961914062,21.255970001220703,21.542787551879883,63.156843185424805
1759166246.7481854,1759166246.7734513,107.15866088867188,0.14901161193847656,0.06818771362304688,20.245790481567383,20.31397819519043,20.682811737060547,63.529253005981445
1759166246.855486,1759166246.8575864,28.472900390625,0.0171661376953125,0.06628036499023438,24.673938751220703,24.740219116210938,24.84297752380371,25.914907455444336
1759166246.884102,1759166246.9464047,93.78981590270996,0.5631446838378906,0.0667572021484375,19.840240478515625,19.906997680664062,21.59738540649414,82.86499977111816
1759166246.9780312,1759166247.0373216,85.23344993591309,0.23102760314941406,0.0629425048828125,19.821643829345703,19.884586334228516,20.48015594482422,64.41879272460938
1759166247.0674222,1759166247.1281126,109.43984985351562,1.2700557708740234,0.06461143493652344,19.84858512878418,19.913196563720703,21.404743194580078,65.77467918395996
1759166247.1772728,1759166247.2188056,85.62254905700684,0.1456737518310547,0.06198883056640625,19.741058349609375,19.80304718017578,20.272016525268555,63.89641761779785
1759166247.271587,1759166247.328636,111.25683784484863,0.1220703125,0.062465667724609375,19.76943016052246,19.83189582824707,20.235061645507812,84.24091339111328
1759166247.3838997,1759166247.4398015,83.99820327758789,0.18596649169921875,0.06341934204101562,19.844770431518555,19.90818977355957,20.450115203857422,63.28177452087402
1759166247.467994,1759166247.5090148,90.66891670227051,0.1480579376220703,0.06365776062011719,19.923925399780273,19.98758316040039,20.473003387451172,63.72475624084473
1759166247.5587945,1759166247.598692,85.87288856506348,0.12731552124023438,0.06818771362304688,20.2181339263916,20.28632164001465,21.836519241333008,65.08970260620117
1759166247.6448104,1759166247.6867566,86.81416511535645,0.04172325134277344,0.06651878356933594,22.826433181762695,22.89295196533203,23.171663284301758,44.541120529174805
1759166247.7317662,1759166247.7754664,88.38009834289551,0.6439685821533203,0.06747245788574219,19.800424575805664,19.867897033691406,21.10004425048828,64.87107276916504
1759166247.8202887,1759166247.8648105,89.01357650756836,0.5412101745605469,0.06604194641113281,19.81329917907715,19.87934112548828,20.726442337036133,64.0106201171875
1759166247.909443,1759166247.953879,74.45740699768066,0.22339820861816406,0.06461143493652344,19.823312759399414,19.887924194335938,20.465612411499023,63.997745513916016
1759166247.9839966,1759166248.0238528,86.1060619354248,0.301361083984375,0.06794929504394531,19.86980438232422,19.937753677368164,20.883798599243164,65.36269187927246
1759166248.0702436,1759166248.1121788,89.38884735107422,0.1723766326904297,0.06818771362304688,21.1946964263916,21.26288414001465,21.89183235168457,65.25325775146484
1759166248.1645882,1759166248.2246041,85.47711372375488,0.14257431030273438,0.06341934204101562,19.757986068725586,19.8214054107666,20.20573616027832,44.99363899230957
1759166248.2545981,1759166248.3138847,86.03501319885254,0.13566017150878906,0.062465667724609375,19.80900764465332,19.87147331237793,20.236968994140625,44.9674129486084
1759166248.3407753,1759166248.403563,106.31728172302246,0.4067420959472656,0.06771087646484375,19.871234893798828,19.938945770263672,20.86162567138672,46.59676551818848
1759166248.4472344,1759166248.4929104,70.71137428283691,0.3418922424316406,0.06842613220214844,19.988059997558594,20.056486129760742,20.978450775146484,46.891212463378906
1759166248.5181553,1759166248.5817444,108.13045501708984,0.21505355834960938,0.06723403930664062,21.38805389404297,21.45528793334961,22.920608520507812,46.59581184387207
1759166248.6264265,1759166248.6706564,73.45724105834961,0.29397010803222656,0.06818771362304688,20.273208618164062,20.34139633178711,22.252559661865234,65.8261775970459
1759166248.7000325,1759166248.7604854,104.86388206481934,1.2822151184082031,0.06842613220214844,19.88697052001953,19.95539665222168,21.636009216308594,65.46306610107422
1759166248.8050356,1759166248.851254,91.8111801147461,0.1633167266845703,0.06341934204101562,19.718170166015625,19.78158950805664,20.171642303466797,45.1507568359375
1759166248.9009016,1759166248.9408548,82.93485641479492,0.14925003051757812,0.062465667724609375,19.738435745239258,19.800901412963867,20.284175872802734,63.695430755615234
1759166248.9908721,1759166249.0303009,89.17737007141113,0.14543533325195312,0.07295608520507812,19.681930541992188,19.754886627197266,20.234107971191406,63.32898139953613
1759166249.0801725,1759166249.1199155,84.68222618103027,0.1373291015625,0.06389617919921875,19.707202911376953,19.771099090576172,20.19500732421875,63.58528137207031
1759166249.1686625,1759166249.2097266,104.81739044189453,0.19741058349609375,0.06937980651855469,20.25914192199707,20.328521728515625,21.888017654418945,65.3538703918457
1759166249.2736304,1759166249.2989657,68.92967224121094,0.25653839111328125,0.06842613220214844,20.325899124145508,20.394325256347656,21.932363510131836,46.35787010192871
1759166249.3427024,1759166249.3868692,89.04886245727539,0.2028942108154297,0.06699562072753906,21.738290786743164,21.805286407470703,23.21767807006836,46.63705825805664
1759166249.4318912,1759166249.4761817,88.99402618408203,0.6108283996582031,0.06651878356933594,19.862651824951172,19.929170608520508,21.799564361572266,65.22035598754883
1759166249.5210261,1759166249.5663214,90.02256393432617,1.2693405151367188,0.06580352783203125,19.929885864257812,19.995689392089844,21.476030349731445,65.6130313873291
1759166249.6138742,1759166249.6574626,107.28096961975098,0.19884109497070312,0.06818771362304688,20.323991775512695,20.392179489135742,21.942138671875,65.3526782989502
1759166249.72174,1759166249.7472465,91.31503105163574,0.055789947509765625,0.06723403930664062,21.475791931152344,21.543025970458984,21.844148635864258,63.2319450378418
1759166249.8166273,1759166249.8381588,103.20258140563965,0.14328956604003906,0.06794929504394531,19.957304000854492,20.025253295898438,20.397663116455078,63.0953311920166
1759166249.919927,1759166249.9219992,30.704259872436523,0.016450881958007812,0.0705718994140625,24.267911911010742,24.338483810424805,24.442434310913086,25.522232055664062
1759166249.9507773,1759166250.0126328,107.03468322753906,0.14495849609375,0.06794929504394531,23.014307022094727,23.082256317138672,23.3612060546875,26.623964309692383
1759166250.0579565,1759166250.1020658,70.11032104492188,0.2932548522949219,0.0667572021484375,20.300626754760742,20.36738395690918,22.268056869506836,65.54317474365234
1759166250.1325874,1759166250.1934688,107.04612731933594,0.17213821411132812,0.06389617919921875,19.6990966796875,19.76299285888672,20.16925811767578,45.5479621887207
1759166250.2435882,1759166250.2832255,86.4877700805664,0.12445449829101562,0.06699562072753906,20.354032516479492,20.42102813720703,21.02184295654297,65.64521789550781
1759166250.3302019,1759166250.3732812,106.59599304199219,0.1361370086669922,0.06628036499023438,21.384477615356445,21.45075798034668,21.863698959350586,44.942378997802734
1759166250.4369364,1759166250.4623554,68.54104995727539,0.25963783264160156,0.06866455078125,20.203828811645508,20.272493362426758,20.92766761779785,45.29547691345215
1759166250.5056274,1759166250.5514429,71.17867469787598,0.1678466796875,0.06270408630371094,19.6993350982666,19.762039184570312,20.173072814941406,45.38369178771973
1759166250.576933,1759166250.6181436,86.73357963562012,0.042438507080078125,0.0667572021484375,22.453784942626953,22.52054214477539,22.800445556640625,44.83532905578613
1759166250.6638088,1759166250.7086558,108.42108726501465,0.14543533325195312,0.06723403930664062,21.456480026245117,21.523714065551758,21.932363510131836,44.93975639343262
1759166250.7723703,1759166250.7978783,68.96519660949707,0.247955322265625,0.06794929504394531,20.277023315429688,20.344972610473633,21.92544937133789,46.54407501220703
1759166250.841478,1759166250.8850787,71.37274742126465,0.5247592926025391,0.06818771362304688,22.227048873901367,22.295236587524414,24.031877517700195,46.77224159240723
1759166250.9129927,1759166250.9743793,87.18156814575195,0.038623809814453125,0.06723403930664062,23.72884750366211,23.79608154296875,23.94390106201172,26.261091232299805
1759166251.002639,1759166251.0635588,87.24665641784668,0.03814697265625,0.06604194641113281,23.891448974609375,23.957490921020508,24.10721778869629,26.294708251953125
1759166251.0936306,1759166251.1528902,86.11798286437988,0.03743171691894531,0.0667572021484375,23.965835571289062,24.0325927734375,24.186134338378906,26.409626007080078
1759166251.1798468,1759166251.2432961,108.40964317321777,0.14209747314453125,0.07581710815429688,23.03934097290039,23.115158081054688,23.390769958496094,26.790380477905273
1759166251.2883978,1759166251.3325093,88.82617950439453,0.3178119659423828,0.06723403930664062,20.275115966796875,20.342350006103516,22.16792106628418,65.3989315032959
1759166251.3773634,1759166251.422378,95.48425674438477,0.3345012664794922,0.06508827209472656,20.95937728881836,21.024465560913086,21.521329879760742,65.6743049621582
1759166251.4775891,1759166251.5337827,103.0435562133789,0.3108978271484375,0.06341934204101562,19.81043815612793,19.873857498168945,20.59340476989746,63.593387603759766
1759166251.5846298,1759166251.6241794,84.20348167419434,0.04076957702636719,0.06771087646484375,22.5372314453125,22.604942321777344,22.882461547851562,44.597625732421875
1759166251.6689744,1759166251.71277,88.26184272766113,0.6287097930908203,0.06747245788574219,19.872188568115234,19.939661026000977,21.002531051635742,63.58456611633301
1759166251.7580261,1759166251.801831,73.76527786254883,0.3066062927246094,0.06699562072753906,19.78278160095215,19.849777221679688,20.853519439697266,64.8651123046875
1759166251.8327637,1759166251.8917553,84.13147926330566,1.3196468353271484,0.06628036499023438,19.8061466217041,19.872426986694336,21.470069885253906,64.8810863494873
1759166251.921017,1759166251.9597547,83.09245109558105,0.041961669921875,0.06747245788574219,22.475719451904297,22.54319190979004,22.827863693237305,44.8911190032959
1759166252.0042515,1759166252.048388,89.01834487915039,0.6396770477294922,0.06771087646484375,20.13373374938965,20.201444625854492,21.1794376373291,64.32986259460449
1759166252.094176,1759166252.138123,88.7136459350586,0.5941390991210938,0.06842613220214844,19.936561584472656,20.004987716674805,21.859169006347656,64.8796558380127
1759166252.1829872,1759166252.227957,89.6768569946289,1.271963119506836,0.06556510925292969,19.805908203125,19.87147331237793,21.355867385864258,65.1698112487793
1759166252.2765918,1759166252.2967784,85.08133888244629,0.03981590270996094,0.06699562072753906,21.468639373779297,21.535634994506836,21.824121475219727,63.08627128601074
1759166252.3660138,1759166252.3879912,103.5757064819336,0.1437664031982422,0.06771087646484375,19.984722137451172,20.052433013916016,20.419836044311523,63.38691711425781
1759166252.4697325,1759166252.4718087,28.486251831054688,0.016450881958007812,0.0667572021484375,24.723529815673828,24.790287017822266,24.892330169677734,25.95996856689453
1759166252.4983592,1759166252.5607088,90.85321426391602,0.5509853363037109,0.06771087646484375,19.864797592163086,19.93250846862793,22.12834358215332,83.6482048034668
1759166252.593589,1759166252.6314511,86.63320541381836,0.1423358917236328,0.06318092346191406,19.798994064331055,19.86217498779297,20.298004150390625,63.54713439941406
1759166252.6833167,1759166252.74073,85.52908897399902,0.22339820861816406,0.06318092346191406,19.69432830810547,19.757509231567383,20.33519744873047,63.43436241149902
1759166252.7689428,1759166252.810219,107.73420333862305,0.12135505676269531,0.0629425048828125,19.728899002075195,19.791841506958008,20.137786865234375,63.265085220336914
1759166252.877595,1759166252.8998787,88.03915977478027,0.04029273986816406,0.06723403930664062,20.992755889892578,21.05998992919922,21.341800689697266,62.98351287841797
1759166252.9657786,1759166252.9890118,88.85574340820312,0.039577484130859375,0.06771087646484375,21.21877670288086,21.286487579345703,21.578073501586914,63.494205474853516
1759166253.0588005,1759166253.0784929,85.90269088745117,0.04792213439941406,0.06651878356933594,21.522045135498047,21.588563919067383,21.87967300415039,63.30418586730957
1759166253.144848,1759166253.1683352,86.2128734588623,0.04076957702636719,0.06723403930664062,21.14129066467285,21.208524703979492,21.49176597595215,63.02285194396973
1759166253.2311587,1759166253.2569876,69.41747665405273,0.5195140838623047,0.06842613220214844,20.252466201782227,20.320892333984375,21.237850189208984,45.908451080322266
1759166253.3007195,1759166253.3460763,69.16236877441406,0.15974044799804688,0.06389617919921875,19.775390625,19.83928680419922,20.230770111083984,45.168399810791016
1759166253.3745885,1759166253.4354227,85.2653980255127,0.14519691467285156,0.06437301635742188,19.883155822753906,19.947528839111328,20.319223403930664,45.20845413208008
1759166253.4645922,1759166253.5251882,103.34181785583496,0.15878677368164062,0.06365776062011719,19.95539665222168,20.019054412841797,20.390033721923828,45.42899131774902
1759166253.5698996,1759166253.5931916,89.73360061645508,0.04172325134277344,0.06794929504394531,21.397113800048828,21.465063095092773,21.752595901489258,63.02809715270996
1759166253.6603553,1759166253.6841326,105.76224327087402,0.35309791564941406,0.07534027099609375,20.021915435791016,20.09725570678711,20.671606063842773,63.44294548034668
1759166253.766255,1759166253.7683213,28.159618377685547,0.016450881958007812,0.06604194641113281,24.410486221313477,24.47652816772461,24.577856063842773,25.652408599853516
1759166253.79452,1759166253.856946,90.93713760375977,0.5638599395751953,0.06747245788574219,19.855022430419922,19.922494888305664,22.075176239013672,83.62150192260742
1759166253.889479,1759166253.9282215,106.91714286804199,0.12159347534179688,0.062465667724609375,19.90675926208496,19.96922492980957,20.32017707824707,63.77720832824707
1759166254.0001385,1759166254.040132,103.19304466247559,0.12159347534179688,0.06270408630371094,19.756555557250977,19.819259643554688,20.163774490356445,63.363075256347656
1759166254.109028,1759166254.1311288,104.97665405273438,0.1442432403564453,0.06914138793945312,20.26224136352539,20.331382751464844,20.697593688964844,63.614606857299805
1759166254.2141032,1759166254.2156217,28.52630615234375,0.014781951904296875,0.07081031799316406,24.318695068359375,24.38950538635254,24.488210678100586,25.267362594604492
1759166254.2465923,1759166254.305693,84.4717025756836,0.037670135498046875,0.06699562072753906,23.639202117919922,23.70619773864746,23.859500885009766,26.230573654174805
1759166254.3312068,1759166254.3939257,91.53389930725098,0.5469322204589844,0.07271766662597656,19.736051559448242,19.80876922607422,21.997690200805664,83.86754989624023
1759166254.4266284,1759166254.464827,101.90534591674805,0.12087821960449219,0.06270408630371094,19.84429359436035,19.906997680664062,20.251750946044922,63.59457969665527
1759166254.5335917,1759166254.5547333,86.41695976257324,0.03981590270996094,0.06771087646484375,21.62957191467285,21.697282791137695,21.98648452758789,63.280344009399414
1759166254.624016,1759166254.6441946,83.87589454650879,0.03886222839355469,0.06628036499023438,21.479368209838867,21.5456485748291,21.82793617248535,63.13204765319824
1759166254.7106333,1759166254.733839,86.58289909362793,0.03981590270996094,0.0667572021484375,21.311283111572266,21.378040313720703,21.66891098022461,62.90292739868164
1759166254.797318,1759166254.823048,88.58776092529297,1.2784004211425781,0.06794929504394531,19.987821578979492,20.055770874023438,21.551847457885742,46.37503623962402
1759166254.886048,1759166254.909784,50.284385681152344,0.03337860107421875,0.06604194641113281,23.472309112548828,23.53835105895996,23.657560348510742,25.18153190612793
1759166254.936474,1759166254.999976,108.5517406463623,0.14472007751464844,0.06699562072753906,22.97830581665039,23.04530143737793,23.324012756347656,26.575326919555664
1759166255.0455809,1759166255.090024,89.53237533569336,0.05364418029785156,0.0667572021484375,23.14925193786621,23.21600914001465,23.395776748657227,45.09091377258301
1759166255.1390638,1759166255.1815758,106.0492992401123,0.14925003051757812,0.06771087646484375,21.727800369262695,21.79551124572754,22.202491760253906,45.35675048828125
1759166255.245255,1759166255.270891,68.91369819641113,0.21886825561523438,0.06890296936035156,20.273923873901367,20.34282684326172,21.847248077392578,46.69070243835449
1759166255.3148324,1759166255.357673,69.0610408782959,0.03361701965332031,0.06699562072753906,23.962020874023438,24.029016494750977,24.148941040039062,25.705575942993164
1759166255.3876343,1759166255.4469767,86.24815940856934,0.038623809814453125,0.06699562072753906,23.950815200805664,24.017810821533203,24.167537689208984,26.304244995117188
1759166255.4740233,1759166255.537459,108.49547386169434,0.14972686767578125,0.06723403930664062,22.778749465942383,22.845983505249023,23.134946823120117,26.596784591674805
1759166255.5830739,1759166255.627768,89.2481803894043,0.04482269287109375,0.06651878356933594,22.579193115234375,22.64571189880371,22.94778823852539,44.9528694152832
1759166255.6724627,1759166255.7160776,88.33479881286621,0.5857944488525391,0.06723403930664062,19.913911819458008,19.98114585876465,22.062301635742188,64.86654281616211
1759166255.7609406,1759166255.8058102,70.9531307220459,1.3000965118408203,0.06461143493652344,19.908428192138672,19.973039627075195,21.547317504882812,65.26660919189453
1759166255.8320363,1759166255.8746867,105.99350929260254,0.14591217041015625,0.06794929504394531,21.526336669921875,21.59428596496582,21.996736526489258,44.97504234313965
1759166255.9381728,1759166255.9638016,69.33975219726562,0.25081634521484375,0.06794929504394531,20.17974853515625,20.247697830200195,21.830320358276367,46.54383659362793
1759166256.009635,1759166256.0525625,90.99817276000977,0.06437301635742188,0.06818771362304688,22.68695831298828,22.755146026611328,22.931575775146484,46.65875434875488
1759166256.101204,1759166256.14217,85.87121963500977,0.0400543212890625,0.06651878356933594,22.79520034790039,22.861719131469727,23.133516311645508,44.841766357421875
1759166256.1871738,1759166256.230961,88.46902847290039,0.6229877471923828,0.06771087646484375,19.936084747314453,20.003795623779297,22.116899490356445,65.34242630004883
1759166256.276376,1759166256.3222,89.2934799194336,0.26607513427734375,0.07486343383789062,20.25628089904785,20.331144332885742,21.915674209594727,46.02622985839844
1759166256.365811,1759166256.409443,71.07210159301758,0.10800361633300781,0.0667572021484375,22.516489028930664,22.5832462310791,22.998332977294922,45.78709602355957
1759166256.4406302,1759166256.4986935,83.65011215209961,0.08511543273925781,0.06651878356933594,23.844480514526367,23.910999298095703,24.091720581054688,46.15592956542969
1759166256.527635,1759166256.5880802,87.24808692932129,0.03743171691894531,0.06508827209472656,23.97012710571289,24.035215377807617,24.182558059692383,26.258230209350586
1759166256.6186302,1759166256.6771114,88.25421333312988,0.036716461181640625,0.06723403930664062,24.09815788269043,24.16539192199707,24.31344985961914,26.12161636352539
1759166256.7070286,1759166256.7665925,88.60301971435547,0.03814697265625,0.06651878356933594,24.21712875366211,24.283647537231445,24.433374404907227,26.480436325073242
1759166256.7957788,1759166256.855955,89.10536766052246,0.03552436828613281,0.06628036499023438,24.14250373840332,24.208784103393555,24.35779571533203,26.212453842163086
1759166256.8850272,1759166256.9451408,86.0757827758789,0.036716461181640625,0.06628036499023438,24.2617130279541,24.327993392944336,24.4753360748291,26.27873420715332
1759166256.971246,1759166257.033788,91.61853790283203,0.4935264587402344,0.06723403930664062,20.051956176757812,20.119190216064453,22.261857986450195,83.94885063171387
1759166257.0675914,1759166257.1045592,104.04324531555176,0.11968612670898438,0.06127357482910156,19.800186157226562,19.861459732055664,20.201921463012695,63.3544921875
1759166257.1721697,1759166257.2155182,96.49443626403809,0.13303756713867188,0.061511993408203125,19.730329513549805,19.791841506958008,20.210981369018555,63.34400177001953
1759166257.2688072,1759166257.3254557,99.29490089416504,0.1266002655029297,0.060558319091796875,19.801616668701172,19.86217498779297,20.268917083740234,83.82654190063477
1759166257.3692787,1759166257.3705618,28.35392951965332,0.01430511474609375,0.06818771362304688,22.654056549072266,22.722244262695312,22.863149642944336,23.714065551757812
1759166257.3977785,1759166257.4595075,87.85223960876465,0.12063980102539062,0.06723403930664062,23.064136505126953,23.131370544433594,23.490428924560547,26.62348747253418
1759166257.4857748,1759166257.5493388,108.43229293823242,0.19598007202148438,0.06794929504394531,21.70729637145996,21.775245666503906,23.177385330200195,66.6050910949707
1759166257.594351,1759166257.6386054,88.95277976989746,0.5919933319091797,0.0667572021484375,19.83952522277832,19.906282424926758,21.081209182739258,65.34433364868164
1759166257.6834471,1759166257.7279394,89.16282653808594,0.5309581756591797,0.07152557373046875,19.713401794433594,19.784927368164062,21.54397964477539,64.93544578552246
1759166257.772752,1759166257.8176184,94.88153457641602,1.2526512145996094,0.06723403930664062,19.87600326538086,19.9432373046875,21.41404151916504,65.12069702148438
1759166257.8680553,1759166257.908404,86.61079406738281,0.15115737915039062,0.06318092346191406,19.821882247924805,19.88506317138672,20.3549861907959,63.854217529296875
1759166257.955203,1759166257.998606,106.87923431396484,0.4439353942871094,0.06890296936035156,19.96445655822754,20.03335952758789,21.8203067779541,65.43850898742676
1759166258.0622244,1759166258.0868533,68.93062591552734,0.4832744598388672,0.06842613220214844,20.908594131469727,20.977020263671875,22.672653198242188,46.198129653930664
1759166258.1312957,1759166258.175562,73.79150390625,0.6074905395507812,0.06866455078125,19.954204559326172,20.022869110107422,21.1637020111084,64.39542770385742
1759166258.2095904,1759166258.2649124,81.30288124084473,0.3600120544433594,0.06341934204101562,19.774675369262695,19.83809471130371,20.71690559387207,64.72635269165039
1759166258.293448,1759166258.3341312,104.32219505310059,0.1933574676513672,0.06914138793945312,20.276784896850586,20.34592628479004,21.8813419342041,64.94498252868652
1759166258.3979115,1759166258.4231732,69.2586898803711,0.2486705780029297,0.06914138793945312,20.3554630279541,20.424604415893555,22.00937271118164,46.370744705200195
1759166258.4673133,1759166258.5120327,89.29133415222168,0.2090930938720703,0.06771087646484375,21.463394165039062,21.531105041503906,22.107601165771484,45.82691192626953
1759166258.5573406,1759166258.6032443,92.76032447814941,0.18262863159179688,0.06771087646484375,20.328521728515625,20.39623260498047,22.02153205871582,65.29116630554199
1759166258.650242,1759166258.6929843,105.95536231994629,0.16999244689941406,0.06866455078125,21.162748336791992,21.231412887573242,21.66581153869629,65.02437591552734
1759166258.756293,1759166258.781621,68.48740577697754,0.5486011505126953,0.06937980651855469,19.937515258789062,20.006895065307617,21.891117095947266,46.321868896484375
1759166258.8249218,1759166258.8692083,88.96136283874512,0.19502639770507812,0.06699562072753906,21.495342254638672,21.56233787536621,22.951841354370117,46.466827392578125
1759166258.9140244,1759166258.9585664,89.36238288879395,0.3142356872558594,0.06771087646484375,20.274639129638672,20.342350006103516,21.90852165222168,65.60993194580078
1759166259.0041165,1759166259.0498583,92.86046028137207,0.3190040588378906,0.06723403930664062,20.11394500732422,20.18117904663086,21.140336990356445,63.93122673034668
1759166259.1006293,1759166259.139109,84.0458869934082,0.14734268188476562,0.06389617919921875,19.780635833740234,19.844532012939453,20.186662673950195,63.397884368896484
1759166259.1848462,1759166259.2279894,95.0319766998291,1.0426044464111328,0.06961822509765625,20.270586013793945,20.3402042388916,22.7813720703125,65.1848316192627
1759166259.2845893,1759166259.340082,78.28640937805176,0.13303756713867188,0.06818771362304688,19.78898048400879,19.857168197631836,20.210981369018555,44.593095779418945
1759166259.3676498,1759166259.4296274,109.20119285583496,0.15783309936523438,0.062465667724609375,19.7904109954834,19.852876663208008,20.21956443786621,45.601844787597656
1759166259.4772556,1759166259.5196455,105.96823692321777,0.44918060302734375,0.07033348083496094,19.932270050048828,20.00260353088379,21.811723709106445,65.51384925842285
1759166259.58337,1759166259.609073,69.1215991973877,0.518798828125,0.06937980651855469,19.936800003051758,20.006179809570312,21.84581756591797,46.643733978271484
1759166259.6526403,1759166259.6968353,88.9577865600586,0.1990795135498047,0.06747245788574219,21.716833114624023,21.784305572509766,23.18263053894043,46.52833938598633
1759166259.7416973,1759166259.7859085,88.83857727050781,0.6322860717773438,0.06747245788574219,19.800186157226562,19.867658615112305,22.002696990966797,65.37175178527832
1759166259.8306763,1759166259.8753502,70.99151611328125,0.38433074951171875,0.06437301635742188,20.967483520507812,21.031856536865234,21.64435386657715,65.44661521911621
1759166259.9065945,1759166259.966243,85.0377082824707,0.15163421630859375,0.06413459777832031,19.690752029418945,19.754886627197266,20.119905471801758,44.86870765686035
1759166259.9917774,1759166260.054519,107.65814781188965,0.20003318786621094,0.06628036499023438,21.748065948486328,21.814346313476562,23.214340209960938,46.7526912689209
1759166260.0999734,1759166260.144417,89.31207656860352,0.04458427429199219,0.072479248046875,22.962093353271484,23.03457260131836,23.336172103881836,44.85821723937988
1759166260.1893966,1759166260.2333353,88.71054649353027,0.5986690521240234,0.0667572021484375,19.926786422729492,19.99354362487793,21.83818817138672,64.99099731445312
1759166260.278249,1759166260.323043,71.59733772277832,0.3790855407714844,0.06628036499023438,21.01874351501465,21.085023880004883,21.692752838134766,65.31095504760742
1759166260.3501458,1759166260.3910584,87.52107620239258,0.030517578125,0.06628036499023438,22.57561683654785,22.641897201538086,22.921085357666016,44.904470443725586
1759166260.4381936,1759166260.4816487,107.02991485595703,0.14448165893554688,0.06699562072753906,21.443843841552734,21.510839462280273,21.94356918334961,44.97528076171875
1759166260.545369,1759166260.5722892,70.8456039428711,0.27751922607421875,0.09703636169433594,20.575523376464844,20.67255973815918,22.2775936126709,48.30574989318848
1759166260.6163573,1759166260.660949,89.25795555114746,0.19860267639160156,0.06890296936035156,21.59428596496582,21.663188934326172,22.1707820892334,45.7763671875
1759166260.7063634,1759166260.7522223,89.16163444519043,0.537872314453125,0.06890296936035156,19.968271255493164,20.037174224853516,21.881580352783203,46.001434326171875
1759166260.7956228,1759166260.8401995,89.00260925292969,0.21004676818847656,0.06771087646484375,21.32558822631836,21.393299102783203,22.832393646240234,46.50402069091797
1759166260.8847675,1759166260.9290395,88.8674259185791,0.31113624572753906,0.06628036499023438,20.282745361328125,20.34902572631836,21.226167678833008,64.56279754638672
1759166260.9737744,1759166261.0180614,71.24543190002441,0.22077560424804688,0.0629425048828125,19.77252960205078,19.835472106933594,20.40553092956543,63.92312049865723
1759166261.0506048,1759166261.1078553,104.32076454162598,0.11897087097167969,0.06079673767089844,19.8671817779541,19.927978515625,20.3244686126709,84.64765548706055
1759166261.1635876,1759166261.219547,103.76262664794922,0.12040138244628906,0.06031990051269531,19.81329917907715,19.873619079589844,20.278215408325195,84.49435234069824
1759166261.2716303,1759166261.290771,101.08089447021484,0.1404285430908203,0.06771087646484375,20.414113998413086,20.48182487487793,20.847082138061523,63.50874900817871
1759166261.372855,1759166261.375204,31.777381896972656,0.01621246337890625,0.064849853515625,24.188518524169922,24.253368377685547,24.356365203857422,25.40278434753418
1759166261.404781,1759166261.4644253,86.84945106506348,0.0362396240234375,0.07367134094238281,24.09505844116211,24.168729782104492,24.318456649780273,26.144027709960938
1759166261.4917743,1759166261.5550575,108.16669464111328,0.14257431030273438,0.06604194641113281,22.818565368652344,22.884607315063477,23.15807342529297,26.5810489654541
1759166261.6000826,1759166261.6443179,88.9887809753418,0.32210350036621094,0.06651878356933594,20.278453826904297,20.344972610473633,22.152423858642578,65.50097465515137
1759166261.6892138,1759166261.7341685,89.91789817810059,1.251220703125,0.06413459777832031,19.92011070251465,19.98424530029297,21.448850631713867,65.26398658752441
1759166261.7792268,1759166261.824964,89.4463062286377,0.3452301025390625,0.06699562072753906,20.05481719970703,20.12181282043457,20.986557006835938,46.115875244140625
1759166261.8725908,1759166261.9149046,85.58988571166992,0.13256072998046875,0.06794929504394531,20.280838012695312,20.348787307739258,21.78812026977539,46.78463935852051
1759166261.9583201,1759166262.0030005,90.31105041503906,0.32401084899902344,0.06842613220214844,21.151065826416016,21.219491958618164,22.760629653930664,66.51496887207031
1759166262.052631,1759166262.0931792,93.32394599914551,0.039577484130859375,0.06914138793945312,30.735015869140625,30.804157257080078,31.081199645996094,53.01642417907715
1759166262.1476316,1759166262.192308,108.4892749786377,0.14328956604003906,0.0743865966796875,21.541357040405273,21.61574363708496,22.011995315551758,45.096635818481445
1759166262.2600465,1759166262.2818837,85.7548713684082,0.04267692565917969,0.06628036499023438,21.464109420776367,21.5303897857666,21.827220916748047,44.31414604187012
1759166262.3478444,1759166262.3713527,87.07785606384277,0.03910064697265625,0.0667572021484375,21.71778678894043,21.784543991088867,22.060155868530273,63.4913444519043
1759166262.438634,1759166262.4627788,106.0032844543457,0.13589859008789062,0.06818771362304688,20.277023315429688,20.345211029052734,20.698070526123047,63.46583366394043
1759166262.5447803,1759166262.5468702,28.296232223510742,0.015735626220703125,0.06651878356933594,24.518728256225586,24.585247039794922,24.690628051757812,25.74634552001953
1759166262.575634,1759166262.6368186,90.29293060302734,0.03719329833984375,0.06723403930664062,24.003982543945312,24.071216583251953,24.21879768371582,26.311397552490234
1759166262.6660724,1759166262.7273865,86.16781234741211,0.12564659118652344,0.06747245788574219,22.74012565612793,22.807598114013672,23.175954818725586,26.500225067138672
1759166262.75359,1759166262.8168392,108.04080963134766,0.1957416534423828,0.06771087646484375,21.857023239135742,21.924734115600586,22.43208885192871,65.59252738952637
1759166262.861772,1759166262.9060266,71.1057186126709,0.4534721374511719,0.07009506225585938,19.805908203125,19.87600326538086,21.614789962768555,65.18077850341797
1759166262.9364536,1759166262.9967918,85.39652824401855,0.1373291015625,0.062465667724609375,19.900798797607422,19.96326446533203,20.328521728515625,45.05562782287598
1759166263.0265868,1759166263.086269,88.04488182067871,0.133514404296875,0.06198883056640625,19.73891258239746,19.800901412963867,20.1568603515625,45.0594425201416
1759166263.114784,1759166263.1819785,98.0534553527832,0.09083747863769531,0.0667572021484375,19.8361873626709,19.902944564819336,20.067214965820312,50.707340240478516
1759166263.2129323,1759166263.291173,103.95359992980957,0.2334117889404297,0.06389617919921875,19.754648208618164,19.818544387817383,20.413875579833984,75.0734806060791
1759166263.316983,1759166263.3608031,107.67817497253418,0.19097328186035156,0.06794929504394531,20.277023315429688,20.344972610473633,20.95937728881836,65.51194190979004
1759166263.4247992,1759166263.4502106,68.90010833740234,0.30684471130371094,0.06771087646484375,19.8976993560791,19.965410232543945,20.78533172607422,46.27704620361328
1759166263.4938426,1759166263.5392723,72.03984260559082,0.3905296325683594,0.06890296936035156,20.0045108795166,20.073413848876953,21.031856536865234,45.531272888183594
1759166263.5660262,1759166263.6288662,87.87846565246582,0.2522468566894531,0.06580352783203125,20.65253257751465,20.71833610534668,21.627426147460938,46.62442207336426
1759166263.6585894,1759166263.720302,108.25943946838379,0.15664100646972656,0.06866455078125,19.733905792236328,19.802570343017578,20.16162872314453,45.324087142944336
1759166263.7672594,1759166263.8097508,105.99851608276367,0.44655799865722656,0.06866455078125,19.841432571411133,19.910097122192383,20.776748657226562,64.95833396911621
1759166263.8733985,1759166263.898404,49.66235160827637,0.3600120544433594,0.07009506225585938,19.902706146240234,19.972801208496094,20.893096923828125,45.17245292663574
1759166263.9275901,1759166263.9881473,107.04326629638672,0.15687942504882812,0.06341934204101562,19.893884658813477,19.957304000854492,20.316362380981445,45.29285430908203
1759166264.0350528,1759166264.0778158,87.57448196411133,0.12159347534179688,0.0667572021484375,20.369529724121094,20.43628692626953,21.94833755493164,65.40441513061523
1759166264.1276522,1759166264.1894863,107.98168182373047,0.1633167266845703,0.06389617919921875,19.83785629272461,19.901752471923828,20.274639129638672,45.33195495605469
1759166264.2395885,1759166264.2787087,85.30545234680176,0.0896453857421875,0.06651878356933594,20.933151245117188,20.999670028686523,22.403240203857422,65.28234481811523
1759166264.3294866,1759166264.390598,87.4178409576416,0.13446807861328125,0.06413459777832031,19.791603088378906,19.855737686157227,20.210981369018555,45.32766342163086
1759166264.417041,1759166264.4784899,106.44006729125977,0.2009868621826172,0.07295608520507812,21.80957794189453,21.88253402709961,23.284435272216797,46.477556228637695
1759166264.5240324,1759166264.5689063,93.01376342773438,0.04601478576660156,0.0667572021484375,22.618532180786133,22.68528938293457,22.980451583862305,45.10378837585449
1759166264.6171718,1759166264.658565,89.87641334533691,0.04076957702636719,0.0705718994140625,22.630929946899414,22.701501846313477,22.98116683959961,44.742584228515625
1759166264.7071733,1759166264.7478569,85.60776710510254,0.04124641418457031,0.06628036499023438,22.91083335876465,22.977113723754883,23.249387741088867,44.91305351257324
1759166264.7929237,1759166264.8369205,88.71579170227051,0.5869865417480469,0.06771087646484375,20.014286041259766,20.08199691772461,21.91901206970215,65.07158279418945
1759166264.8823555,1759166264.9284139,89.72406387329102,0.35572052001953125,0.06866455078125,20.03312110900879,20.10178565979004,20.97177505493164,46.12588882446289
1759166264.9756331,1759166265.0183463,86.23051643371582,0.25582313537597656,0.06771087646484375,20.274639129638672,20.342350006103516,21.91448211669922,46.67353630065918
1759166265.0620053,1759166265.1051202,69.14138793945312,1.0335445404052734,0.06723403930664062,22.14527130126953,22.212505340576172,24.49798583984375,46.85831069946289
1759166265.1336317,1759166265.198206,89.63418006896973,0.12302398681640625,0.06651878356933594,23.145437240600586,23.211956024169922,23.570775985717773,26.924610137939453
1759166265.2234075,1759166265.2866144,88.82594108581543,0.40721893310546875,0.06651878356933594,21.431684494018555,21.49820327758789,22.35865592956543,64.47839736938477
1759166265.3194304,1759166265.37743,87.47673034667969,0.22530555725097656,0.0629425048828125,19.768476486206055,19.831418991088867,20.407438278198242,64.32199478149414
1759166265.4070437,1759166265.44682,88.20176124572754,0.12040138244628906,0.06723403930664062,20.343542098999023,20.410776138305664,21.003007888793945,65.18030166625977
1759166265.4953787,1759166265.5352805,87.67914772033691,0.0286102294921875,0.06532669067382812,22.677898406982422,22.74322509765625,23.021697998046875,44.90303993225098
1759166265.583185,1759166265.6264772,106.67896270751953,0.15234947204589844,0.06699562072753906,21.403789520263672,21.47078514099121,21.883010864257812,45.16863822937012
1759166265.690008,1759166265.7155874,68.99189949035645,0.21696090698242188,0.06747245788574219,20.303964614868164,20.371437072753906,21.89183235168457,46.71430587768555
1759166265.7590985,1759166265.8036485,89.42866325378418,0.25582313537597656,0.06771087646484375,21.677494049072266,21.74520492553711,23.215532302856445,66.90359115600586
1759166265.8486705,1759166265.8927116,89.30182456970215,0.3085136413574219,0.06651878356933594,20.595312118530273,20.66183090209961,22.234439849853516,65.43803215026855
1759166265.9387012,1759166265.983242,99.16257858276367,0.38552284240722656,0.06628036499023438,21.008729934692383,21.075010299682617,22.020578384399414,64.16845321655273
1759166266.038011,1759166266.097071,104.85410690307617,0.15997886657714844,0.06222724914550781,19.88363265991211,19.945859909057617,20.328521728515625,45.77445983886719
1759166266.1465914,1759166266.187368,104.61044311523438,0.5006790161132812,0.06890296936035156,19.95849609375,20.02739906311035,21.85964584350586,65.55938720703125
1759166266.2512999,1759166266.2768848,69.54145431518555,0.24938583374023438,0.07224082946777344,20.334482192993164,20.406723022460938,21.985769271850586,46.649932861328125
1759166266.3246305,1759166266.3645456,68.25876235961914,0.04029273986816406,0.06699562072753906,23.763179779052734,23.830175399780273,23.967266082763672,46.077728271484375
1759166266.3930326,1759166266.4548137,106.85873031616211,0.14162063598632812,0.06699562072753906,23.125410079956055,23.192405700683594,23.467540740966797,26.737213134765625
1759166266.5000412,1759166266.544464,90.14749526977539,0.32329559326171875,0.06747245788574219,20.78557014465332,20.853042602539062,22.5064754486084,66.03574752807617
1759166266.5909393,1759166266.63696,73.84276390075684,0.3294944763183594,0.06747245788574219,20.107030868530273,20.174503326416016,21.106719970703125,44.30580139160156
1759166266.664925,1759166266.726768,86.14444732666016,0.13256072998046875,0.0629425048828125,19.887447357177734,19.950389862060547,20.299196243286133,45.213937759399414
1759166266.755588,1759166266.8165903,83.32037925720215,0.1347064971923828,0.062465667724609375,19.7908878326416,19.85335350036621,20.201683044433594,45.2275276184082
1759166266.8455894,1759166266.9063072,107.04374313354492,0.15234947204589844,0.07033348083496094,19.826412200927734,19.896745681762695,20.25580406188965,45.346736907958984
1759166266.9530568,1759166266.9961162,86.81011199951172,0.13208389282226562,0.06723403930664062,20.379304885864258,20.4465389251709,21.851539611816406,46.30422592163086
1759166267.0400095,1759166267.084933,89.86353874206543,0.4928112030029297,0.08130073547363281,21.375179290771484,21.456480026245117,23.169755935668945,67.17991828918457
1759166267.1306043,1759166267.17515,89.57576751708984,0.0438690185546875,0.06699562072753906,22.7353572845459,22.802352905273438,23.1020450592041,45.105934143066406
1759166267.22032,1759166267.2639554,88.43207359313965,0.6742477416992188,0.06747245788574219,20.02239227294922,20.08986473083496,22.014617919921875,64.8341178894043
1759166267.3088913,1759166267.35371,94.74039077758789,1.2447834014892578,0.06604194641113281,19.971847534179688,20.03788948059082,21.48914337158203,65.16909599304199
1759166267.4040534,1759166267.4445374,86.79604530334473,0.15544891357421875,0.06341934204101562,19.771337509155273,19.83475685119629,20.200252532958984,44.72923278808594
1759166267.4946637,1759166267.5342114,86.97128295898438,0.15473365783691406,0.06198883056640625,19.861698150634766,19.923686981201172,20.27726173400879,44.83842849731445
1759166267.5818136,1759166267.6248412,106.37974739074707,0.18787384033203125,0.0667572021484375,20.2789306640625,20.345687866210938,21.86894416809082,65.31071662902832
1759166267.6889808,1759166267.714556,93.20330619812012,0.055789947509765625,0.06723403930664062,21.605730056762695,21.672964096069336,22.034406661987305,63.89021873474121
1759166267.7866502,1759166267.805943,85.03484725952148,0.03981590270996094,0.06771087646484375,21.15488052368164,21.222591400146484,21.495580673217773,63.465118408203125
1759166267.871836,1759166267.8950787,86.61246299743652,0.03838539123535156,0.06699562072753906,21.55447006225586,21.6214656829834,21.895647048950195,63.2932186126709
1759166267.958607,1759166267.9844139,69.3352222442627,0.5185604095458984,0.06985664367675781,20.226716995239258,20.296573638916016,21.038532257080078,45.659780502319336
1759166268.0280864,1759166268.0738568,69.76866722106934,0.13566017150878906,0.06437301635742188,19.92011070251465,19.98448371887207,20.35689353942871,45.357704162597656
1759166268.102589,1759166268.164091,113.13033103942871,0.164031982421875,0.06532669067382812,20.034313201904297,20.099639892578125,20.535945892333984,46.02766036987305
1759166268.2162647,1759166268.257321,86.6689682006836,0.1442432403564453,0.06937980651855469,19.853591918945312,19.922971725463867,20.39957046508789,64.81361389160156
1759166268.310647,1759166268.3484635,80.24859428405762,0.15091896057128906,0.06389617919921875,19.658327102661133,19.72222328186035,20.197391510009766,63.58194351196289
1759166268.3996427,1759166268.4383318,105.0407886505127,0.11944770812988281,0.06818771362304688,19.59824562072754,19.666433334350586,20.0045108795166,63.28177452087402
1759166268.5048308,1759166268.527605,86.0280990600586,0.04100799560546875,0.06818771362304688,21.38543128967285,21.4536190032959,21.738767623901367,63.57169151306152
1759166268.5910096,1759166268.6169808,70.05763053894043,0.5283355712890625,0.06937980651855469,19.967317581176758,20.036697387695312,21.981239318847656,46.9815731048584
1759166268.6636617,1759166268.706603,72.0059871673584,0.13637542724609375,0.06937980651855469,23.79775047302246,23.867130279541016,24.217605590820312,48.0499267578125
1759166268.735846,1759166268.796525,90.81554412841797,0.0476837158203125,0.06771087646484375,25.475025177001953,25.542736053466797,25.728464126586914,47.905921936035156
1759166268.8268368,1759166268.8902705,109.12752151489258,0.1506805419921875,0.07104873657226562,23.300886154174805,23.37193489074707,23.673057556152344,27.818679809570312
1759166268.9361486,1759166268.981898,94.55347061157227,0.041484832763671875,0.07390975952148438,23.92292022705078,23.996829986572266,24.291038513183594,46.01240158081055
1759166269.034653,1759166269.0761316,110.0311279296875,0.14662742614746094,0.06961822509765625,21.813631057739258,21.883249282836914,22.290468215942383,46.52738571166992
1759166269.1536114,1759166269.1905394,88.35577964782715,0.15425682067871094,0.06604194641113281,19.888877868652344,19.954919815063477,20.47252655029297,64.63050842285156
1759166269.2516134,1759166269.3038843,104.11405563354492,1.4994144439697266,0.06914138793945312,20.11394500732422,20.183086395263672,21.923542022705078,66.61415100097656
1759166269.359615,1759166269.3977141,82.68523216247559,0.1392364501953125,0.06961822509765625,20.548105239868164,20.61772346496582,22.281885147094727,47.54948616027832
1759166269.4424803,1759166269.4877343,90.77310562133789,0.6101131439208984,0.06866455078125,21.770477294921875,21.839141845703125,22.826671600341797,67.00468063354492
1759166269.5334034,1759166269.5777464,89.13350105285645,0.5717277526855469,0.06604194641113281,19.877910614013672,19.943952560424805,20.64061164855957,63.82322311401367
1759166269.6226995,1759166269.666858,71.17509841918945,0.2193450927734375,0.06413459777832031,19.716262817382812,19.780397415161133,20.348787307739258,63.20619583129883
1759166269.6981635,1759166269.7563794,103.73497009277344,0.11920928955078125,0.06771087646484375,19.781112670898438,19.84882354736328,20.25008201599121,83.3888053894043
1759166269.8064034,1759166269.8263438,84.2292308807373,0.03886222839355469,0.06771087646484375,21.23427391052246,21.301984786987305,21.579504013061523,63.27557563781738
1759166269.8946307,1759166269.9154155,84.35583114624023,0.03886222839355469,0.072479248046875,21.544694900512695,21.61717414855957,21.897315979003906,63.276052474975586
1759166269.9790845,1759166270.0047922,69.02146339416504,0.24366378784179688,0.0667572021484375,20.198583602905273,20.26534080505371,21.85225486755371,46.56243324279785
1759166270.048249,1759166270.0923998,88.93370628356934,0.20456314086914062,0.06794929504394531,21.715879440307617,21.783828735351562,22.307157516479492,45.569419860839844
1759166270.1373243,1759166270.1817904,90.08336067199707,0.5350112915039062,0.06437301635742188,19.84858512878418,19.9129581451416,21.68130874633789,65.33408164978027
1759166270.2275136,1759166270.2727332,92.40269660949707,1.2500286102294922,0.06556510925292969,19.875526428222656,19.941091537475586,21.401643753051758,65.45805931091309
1759166270.3239996,1759166270.3655972,107.65814781188965,0.19884109497070312,0.07295608520507812,20.867347717285156,20.940303802490234,22.60899543762207,66.5440559387207
1759166270.440603,1759166270.47864,82.28063583374023,0.14734268188476562,0.06413459777832031,19.739866256713867,19.804000854492188,20.144224166870117,63.500165939331055
1759166270.5275984,1759166270.5685325,91.28117561340332,0.14090538024902344,0.062465667724609375,19.752979278564453,19.815444946289062,20.307540893554688,63.775062561035156
1759166270.6235917,1759166270.6786199,82.29303359985352,0.232696533203125,0.0629425048828125,19.780397415161133,19.843339920043945,20.42388916015625,63.92335891723633
1759166270.7146013,1759166270.7681725,83.23502540588379,0.22554397583007812,0.06341934204101562,19.779205322265625,19.84262466430664,20.435571670532227,64.8043155670166
1759166270.7979765,1759166270.8378096,83.53495597839355,0.1220703125,0.06699562072753906,20.35999298095703,20.42698860168457,21.024227142333984,65.34266471862793
1759166270.8846304,1759166270.926433,86.99488639831543,0.0286102294921875,0.07343292236328125,22.876262664794922,22.949695587158203,23.232698440551758,45.27139663696289
1759166270.9717677,1759166271.0157478,88.7150764465332,0.5860328674316406,0.06723403930664062,20.122289657592773,20.189523696899414,21.349430084228516,64.34774398803711
1759166271.0606303,1759166271.1058583,70.25790214538574,0.21982192993164062,0.06604194641113281,20.052433013916016,20.11847496032715,20.69687843322754,66.27583503723145
1759166271.1395917,1759166271.196509,83.95814895629883,1.3353824615478516,0.06461143493652344,19.96588706970215,20.030498504638672,21.637916564941406,65.73200225830078
1759166271.2262435,1759166271.2877173,86.81797981262207,0.13113021850585938,0.06175041198730469,19.78588104248047,19.847631454467773,20.18880844116211,45.073509216308594
1759166271.3175898,1759166271.3772223,86.04097366333008,0.13494491577148438,0.0629425048828125,19.780397415161133,19.843339920043945,20.21646499633789,45.10021209716797
1759166271.403773,1759166271.465346,106.27293586730957,0.2040863037109375,0.07152557373046875,21.656274795532227,21.727800369262695,22.246122360229492,45.4103946685791
1759166271.5101876,1759166271.5551221,90.15536308288574,0.5424022674560547,0.06532669067382812,19.978046417236328,20.043373107910156,21.82626724243164,65.9022331237793
1759166271.6010964,1759166271.6475465,100.91280937194824,0.2307891845703125,0.07748603820800781,21.883726119995117,21.961212158203125,22.91417121887207,67.66748428344727
1759166271.7056594,1759166271.7629526,83.25982093811035,0.1361370086669922,0.062465667724609375,19.772052764892578,19.834518432617188,20.198345184326172,45.430660247802734
1759166271.792602,1759166271.8518765,104.36081886291504,0.1976490020751953,0.06818771362304688,21.943092346191406,22.011280059814453,22.52960205078125,45.93181610107422
1759166271.8971117,1759166271.941689,89.23101425170898,0.5464553833007812,0.06556510925292969,19.834280014038086,19.899845123291016,21.712779998779297,65.36221504211426
1759166271.9870923,1759166272.0329914,89.61176872253418,0.4069805145263672,0.06723403930664062,20.25580406188965,20.32303810119629,21.246671676635742,45.19224166870117
1759166272.07685,1759166272.1227813,71.18487358093262,0.133514404296875,0.06222724914550781,19.726991653442383,19.78921890258789,20.14327049255371,44.92449760437012
1759166272.1525903,1759166272.21331,85.30259132385254,0.20456314086914062,0.07295608520507812,20.39790153503418,20.470857620239258,20.97320556640625,47.06764221191406
1759166272.242528,1759166272.3036504,86.56430244445801,0.13446807861328125,0.0629425048828125,19.839048385620117,19.90199089050293,20.25294303894043,45.075416564941406
1759166272.329237,1759166272.3908775,90.6679630279541,1.0418891906738281,0.06771087646484375,21.93140983581543,21.999120712280273,24.32394027709961,46.84901237487793
1759166272.4200523,1759166272.4806345,90.62027931213379,0.04220008850097656,0.07963180541992188,26.48639678955078,26.566028594970703,26.777267456054688,28.853654861450195
1759166272.514667,1759166272.574392,86.73381805419922,0.038623809814453125,0.06723403930664062,25.19965171813965,25.26688575744629,25.42257308959961,27.742862701416016
1759166272.6015768,1759166272.6642268,89.39933776855469,0.5576610565185547,0.06914138793945312,20.001888275146484,20.071029663085938,22.170066833496094,83.90164375305176
1759166272.6910841,1759166272.7147052,86.51304244995117,0.04029273986816406,0.0667572021484375,20.99442481994629,21.061182022094727,21.331787109375,63.31372261047363
1759166272.7826388,1759166272.8040588,86.99607849121094,0.03910064697265625,0.06723403930664062,21.59714698791504,21.66438102722168,21.944046020507812,63.36355209350586
1759166272.8697817,1759166272.8940015,87.6762866973877,0.03886222839355469,0.06628036499023438,21.45099639892578,21.517276763916016,21.793127059936523,63.369035720825195
1759166272.9576204,1759166272.9833677,69.5345401763916,0.5221366882324219,0.06771087646484375,19.933223724365234,20.000934600830078,21.864652633666992,46.62895202636719
1759166273.0272975,1759166273.0719357,89.32971954345703,0.20933151245117188,0.06866455078125,21.347999572753906,21.416664123535156,22.861003875732422,46.68378829956055
1759166273.1167693,1759166273.161064,71.32816314697266,0.293731689453125,0.06651878356933594,20.438432693481445,20.50495147705078,22.379159927368164,65.84787368774414
1759166273.192588,1759166273.2522683,87.25476264953613,0.1380443572998047,0.06318092346191406,19.867897033691406,19.93107795715332,20.318269729614258,45.27401924133301
1759166273.2799866,1759166273.341957,87.12172508239746,0.13494491577148438,0.06365776062011719,19.790172576904297,19.853830337524414,20.212411880493164,45.11713981628418
1759166273.3715897,1759166273.4316196,106.26673698425293,0.15497207641601562,0.06318092346191406,19.79684829711914,19.860029220581055,20.22576332092285,45.28522491455078
1759166273.4819026,1759166273.5215487,102.75149345397949,0.20122528076171875,0.06747245788574219,20.313262939453125,20.380735397338867,20.86925506591797,45.276641845703125
1759166273.5847955,1759166273.6102338,52.051544189453125,0.1342296600341797,0.06318092346191406,19.917011260986328,19.980192184448242,20.343542098999023,45.150041580200195
1759166273.636991,1759166273.69879,106.41670227050781,0.19812583923339844,0.06771087646484375,21.47531509399414,21.543025970458984,22.884845733642578,46.610355377197266
1759166273.7435627,1759166273.787772,89.01023864746094,0.30875205993652344,0.06651878356933594,20.233869552612305,20.30038833618164,22.13573455810547,65.51861763000488
1759166273.8327153,1759166273.8776677,94.13456916809082,1.2791156768798828,0.06556510925292969,19.91581916809082,19.98138427734375,21.466493606567383,65.59610366821289
1759166273.9272556,1759166273.9683406,87.37659454345703,1.018524169921875,0.06794929504394531,20.289182662963867,20.357131958007812,22.791624069213867,65.23251533508301
1759166274.0195906,1759166274.08061,86.29202842712402,0.13327598571777344,0.0629425048828125,19.804000854492188,19.866943359375,20.22242546081543,44.64435577392578
1759166274.110589,1759166274.170937,92.47469902038574,0.1838207244873047,0.07605552673339844,20.66636085510254,20.742416381835938,21.46744728088379,47.91712760925293
1759166274.206695,1759166274.2663765,84.26856994628906,0.14400482177734375,0.06747245788574219,19.87147331237793,19.938945770263672,20.331859588623047,46.158790588378906
1759166274.2911358,1759166274.3332872,88.03558349609375,0.03933906555175781,0.06604194641113281,23.615598678588867,23.681640625,23.953676223754883,45.37796974182129
1759166274.3793304,1759166274.423225,89.31350708007812,0.9312629699707031,0.06890296936035156,19.980192184448242,20.049095153808594,22.324562072753906,65.33336639404297
1759166274.4693713,1759166274.515297,89.58005905151367,0.3540515899658203,0.0667572021484375,20.01214027404785,20.07889747619629,20.955801010131836,44.95549201965332
1759166274.5590968,1759166274.6047428,70.79315185546875,0.13303756713867188,0.06318092346191406,20.08819580078125,20.151376724243164,20.51234245300293,45.325517654418945
1759166274.6345887,1759166274.6946096,84.29813385009766,0.13589859008789062,0.06389617919921875,19.81806755065918,19.8819637298584,20.250320434570312,44.883012771606445
1759166274.7235892,1759166274.7841015,89.05386924743652,0.13637542724609375,0.061511993408203125,19.848346710205078,19.90985870361328,20.28059959411621,45.19462585449219
1759166274.8127925,1759166274.8745835,86.1818790435791,0.1399517059326172,0.06365776062011719,19.88697052001953,19.95062828063965,20.331144332885742,45.77517509460449
1759166274.9047034,1759166274.9419613,87.72087097167969,0.04172325134277344,0.06699562072753906,23.491382598876953,23.558378219604492,23.83875846862793,45.48931121826172
1759166275.0006075,1759166275.0562775,100.08955001831055,0.1571178436279297,0.06389617919921875,19.813060760498047,19.876956939697266,20.245790481567383,45.95780372619629
1759166275.1046133,1759166275.1249516,84.07425880432129,0.03886222839355469,0.0667572021484375,21.797657012939453,21.86441421508789,22.142410278320312,63.67659568786621
1759166275.1888027,1759166275.2149138,69.68855857849121,0.5476474761962891,0.08940696716308594,19.900798797607422,19.990205764770508,21.96502685546875,47.04737663269043
1759166275.2586524,1759166275.3031962,75.20437240600586,0.13256072998046875,0.06699562072753906,21.78645133972168,21.85344696044922,22.365331649780273,46.05531692504883
1759166275.3340023,1759166275.3926523,86.89403533935547,0.25010108947753906,0.06842613220214844,22.452592849731445,22.521018981933594,23.982524871826172,46.620845794677734
1759166275.424632,1759166275.4821796,86.00044250488281,0.03790855407714844,0.06747245788574219,24.096012115478516,24.163484573364258,24.31035041809082,26.407241821289062
1759166275.5107796,1759166275.5730085,107.30242729187012,0.13875961303710938,0.06699562072753906,23.06342124938965,23.130416870117188,23.40245246887207,26.653766632080078
1759166275.618225,1759166275.6626267,90.43669700622559,0.31280517578125,0.06604194641113281,20.305156707763672,20.371198654174805,22.275209426879883,65.83690643310547
1759166275.709253,1759166275.7570426,92.85974502563477,0.5612373352050781,0.08249282836914062,20.463228225708008,20.54572105407715,21.786212921142578,46.991586685180664
1759166275.8022928,1759166275.849061,69.79918479919434,0.1373291015625,0.06318092346191406,19.84882354736328,19.912004470825195,20.28179168701172,46.033382415771484
1759166275.876607,1759166275.939647,108.0312728881836,0.15687942504882812,0.06222724914550781,19.87290382385254,19.935131072998047,20.302534103393555,45.9589958190918
1759166275.989592,1759166276.0296056,85.31999588012695,0.14209747314453125,0.0629425048828125,19.889354705810547,19.95229721069336,20.40886878967285,63.38167190551758
1759166276.0796793,1759166276.1193094,85.5565071105957,0.1399517059326172,0.07200241088867188,19.879579544067383,19.951581954956055,20.412445068359375,63.617706298828125
1759166276.1695285,1759166276.2301328,87.37540245056152,0.42366981506347656,0.06413459777832031,20.962953567504883,21.027088165283203,21.677017211914062,65.48738479614258
1759166276.2570493,1759166276.2993734,105.95107078552246,0.13446807861328125,0.06842613220214844,21.58069610595703,21.64912223815918,22.051334381103516,45.211076736450195
1759166276.3635955,1759166276.3892965,93.03641319274902,0.05602836608886719,0.06699562072753906,21.69346809387207,21.76046371459961,22.058963775634766,63.63701820373535
1759166276.457355,1759166276.4795585,86.32087707519531,0.03981590270996094,0.06771087646484375,21.150827407836914,21.218538284301758,21.496057510375977,63.469648361206055
1759166276.5476348,1759166276.5689406,86.21954917907715,0.03886222839355469,0.06747245788574219,21.43573760986328,21.503210067749023,21.784067153930664,63.31348419189453
1759166276.6383772,1759166276.7012863,112.65754699707031,0.11849403381347656,0.06222724914550781,19.8214054107666,19.88363265991211,20.30158042907715,84.9761962890625
1759166276.7595932,1759166276.8128858,106.19449615478516,0.12111663818359375,0.06222724914550781,19.7756290435791,19.83785629272461,20.245075225830078,83.73117446899414
1759166276.8736024,1759166276.9247801,76.33519172668457,0.2193450927734375,0.0629425048828125,19.990921020507812,20.053863525390625,20.6298828125,65.00911712646484
1759166276.958592,1759166277.0159051,106.26816749572754,1.287221908569336,0.06604194641113281,19.890785217285156,19.95682716369629,21.453142166137695,65.56010246276855
1759166277.0652814,1759166277.1072943,105.50951957702637,0.1952648162841797,0.07510185241699219,20.496845245361328,20.57194709777832,22.002696990966797,46.7374324798584
1759166277.1709354,1759166277.196657,68.93324851989746,0.5097389221191406,0.06937980651855469,19.93083953857422,20.000219345092773,20.91073989868164,45.52006721496582
1759166277.2400122,1759166277.28557,73.83489608764648,0.1544952392578125,0.06365776062011719,19.87481117248535,19.93846893310547,20.319223403930664,45.37844657897949
1759166277.3139906,1759166277.3738546,104.69889640808105,0.19931793212890625,0.06818771362304688,21.73447608947754,21.802663803100586,23.20575714111328,46.5390682220459
1759166277.4187872,1759166277.4630983,89.37573432922363,0.6442070007324219,0.06866455078125,20.203590393066406,20.272254943847656,21.245479583740234,64.55779075622559
1759166277.5083036,1759166277.552658,71.5646743774414,0.21791458129882812,0.06341934204101562,19.7756290435791,19.839048385620117,20.410776138305664,63.719749450683594
1759166277.5856018,1759166277.642432,111.23847961425781,0.125885009765625,0.061511993408203125,19.754409790039062,19.815921783447266,20.22838592529297,83.86635780334473
1759166277.6975908,1759166277.7336864,84.08117294311523,0.133514404296875,0.0629425048828125,19.815683364868164,19.878625869750977,20.290613174438477,63.501834869384766
1759166277.7822108,1759166277.844604,107.28025436401367,1.264333724975586,0.064849853515625,19.92177963256836,19.986629486083984,21.458864212036133,65.6282901763916
1759166277.8929076,1759166277.9359326,106.85300827026367,0.19073486328125,0.06866455078125,20.35975456237793,20.42841911315918,21.976470947265625,65.40083885192871
1759166277.999859,1759166278.0253792,69.13280487060547,0.2548694610595703,0.07367134094238281,20.419597625732422,20.493268966674805,22.07660675048828,46.709537506103516
1759166278.0691357,1759166278.1136458,89.26963806152344,0.3688335418701172,0.06914138793945312,21.38376235961914,21.452903747558594,23.0560302734375,46.73314094543457
1759166278.158561,1759166278.2028944,89.17570114135742,0.6511211395263672,0.06747245788574219,19.884347915649414,19.951820373535156,21.811962127685547,65.28830528259277
1759166278.2478771,1759166278.2929046,90.15250205993652,1.2497901916503906,0.06461143493652344,19.9277400970459,19.992351531982422,21.448612213134766,65.26923179626465
1759166278.3416264,1759166278.3844476,86.2877368927002,0.1392364501953125,0.06747245788574219,20.296812057495117,20.36428451538086,20.858049392700195,45.17197608947754
1759166278.4306295,1759166278.4745796,107.91349411010742,0.1876354217529297,0.06747245788574219,20.281076431274414,20.348548889160156,20.961284637451172,65.37294387817383
1759166278.539133,1759166278.5651073,88.80162239074707,0.05435943603515625,0.06651878356933594,21.137237548828125,21.20375633239746,21.417856216430664,43.51162910461426
1759166278.6280763,1759166278.6539946,69.25606727600098,0.5106925964355469,0.06866455078125,19.918441772460938,19.987106323242188,21.816730499267578,46.56624794006348
1759166278.6974742,1759166278.7416115,88.96970748901367,0.19884109497070312,0.06890296936035156,21.897077560424805,21.965980529785156,22.47476577758789,45.665740966796875
1759166278.7865994,1759166278.8311448,70.17970085144043,0.4673004150390625,0.06389617919921875,19.95372772216797,20.017623901367188,20.679712295532227,64.49651718139648
1759166278.860629,1759166278.9004476,91.10260009765625,0.14781951904296875,0.06365776062011719,19.765853881835938,19.829511642456055,20.300865173339844,63.83252143859863
1759166278.95563,1759166279.0104077,81.62689208984375,0.18668174743652344,0.0629425048828125,19.868135452270508,19.93107795715332,20.467758178710938,64.32008743286133
1759166279.0373917,1759166279.0804505,106.67800903320312,0.1964569091796875,0.06747245788574219,20.337343215942383,20.404815673828125,21.941423416137695,65.77229499816895
1759166279.1445363,1759166279.1700828,89.37382698059082,0.1361370086669922,0.06651878356933594,21.575927734375,21.642446517944336,22.032737731933594,44.257402420043945
1759166279.2340503,1759166279.259439,68.92895698547363,0.22125244140625,0.06866455078125,20.473241806030273,20.541906356811523,22.032737731933594,46.67329788208008
1759166279.3031228,1759166279.3473299,71.7611312866211,0.1659393310546875,0.07367134094238281,21.885395050048828,21.95906639099121,23.40102195739746,66.83754920959473
1759166279.3750255,1759166279.435807,86.65680885314941,0.07867813110351562,0.06580352783203125,24.09219741821289,24.158000946044922,24.351835250854492,46.47326469421387
1759166279.4618256,1759166279.5245714,86.81058883666992,0.5450248718261719,0.06747245788574219,20.24984359741211,20.31731605529785,21.420955657958984,83.12797546386719
1759166279.5488238,1759166279.59428,92.07344055175781,0.3714561462402344,0.06699562072753906,21.062850952148438,21.129846572875977,22.047996520996094,65.40870666503906
1759166279.645017,1759166279.684524,83.99319648742676,0.042438507080078125,0.06794929504394531,22.376060485839844,22.44400978088379,22.714614868164062,44.75069046020508
1759166279.7291508,1759166279.7728736,88.51456642150879,0.5807876586914062,0.07343292236328125,20.00141143798828,20.074844360351562,22.10378646850586,65.03486633300781
1759166279.8178077,1759166279.862848,93.82390975952148,1.2426376342773438,0.064849853515625,19.96636390686035,20.031213760375977,21.48151397705078,65.3982162475586
1759166279.912051,1759166279.954113,105.46445846557617,0.1976490020751953,0.06866455078125,20.5841064453125,20.65277099609375,21.135330200195312,45.530080795288086
1759166280.017659,1759166280.0432165,52.19292640686035,0.13399124145507812,0.062465667724609375,19.83332633972168,19.89579200744629,20.255088806152344,45.20249366760254
1759166280.069993,1759166280.1328948,107.67364501953125,0.1571178436279297,0.0629425048828125,19.875049591064453,19.937992095947266,20.30658721923828,45.555830001831055
1759166280.1819034,1759166280.2230263,104.56299781799316,0.19288063049316406,0.0667572021484375,20.29132843017578,20.35808563232422,21.745681762695312,46.240806579589844
1759166280.2869534,1759166280.31277,89.22123908996582,0.05364418029785156,0.06532669067382812,21.58665657043457,21.6519832611084,21.847248077392578,44.84105110168457
1759166280.3763163,1759166280.401994,69.25177574157715,0.5135536193847656,0.06914138793945312,20.298242568969727,20.36738395690918,21.566390991210938,46.010494232177734
1759166280.4457078,1759166280.491204,68.30883026123047,0.1590251922607422,0.06341934204101562,19.814729690551758,19.878149032592773,20.269393920898438,45.2122688293457
1759166280.5184755,1759166280.5809011,108.15572738647461,0.1556873321533203,0.062465667724609375,19.802331924438477,19.864797592163086,20.221233367919922,45.285701751708984
1759166280.6301727,1759166280.670889,83.75382423400879,0.3006458282470703,0.06937980651855469,19.90795135498047,19.977331161499023,20.90001106262207,64.06068801879883
1759166280.7207797,1759166280.760312,85.06178855895996,0.133514404296875,0.07104873657226562,19.83356475830078,19.904613494873047,20.32327651977539,63.606977462768555
1759166280.8145878,1759166280.8705373,100.97956657409668,0.5290508270263672,0.06556510925292969,20.140409469604492,20.205974578857422,21.034955978393555,65.18292427062988
1759166280.9163952,1759166280.9612434,89.51377868652344,1.2950897216796875,0.06842613220214844,20.069360733032227,20.137786865234375,21.886110305786133,66.93124771118164
1759166281.00605,1759166281.0501897,88.96422386169434,0.6406307220458984,0.06747245788574219,19.99950408935547,20.06697654724121,22.185325622558594,65.44733047485352
1759166281.0957599,1759166281.141866,95.07274627685547,0.33092498779296875,0.06818771362304688,20.035505294799805,20.10369300842285,21.064043045043945,65.48380851745605
1759166281.1909745,1759166281.231894,104.40897941589355,0.4525184631347656,0.0705718994140625,19.94919776916504,20.0197696685791,21.677732467651367,46.24676704406738
1759166281.2960556,1759166281.321465,89.0035629272461,0.06175041198730469,0.06818771362304688,21.608591079711914,21.67677879333496,21.979808807373047,63.463687896728516
1759166281.3880253,1759166281.4113739,86.57383918762207,0.03886222839355469,0.06771087646484375,21.124839782714844,21.192550659179688,21.46601676940918,63.28105926513672
1759166281.4749553,1759166281.5010226,91.57395362854004,0.16355514526367188,0.07677078247070312,22.350311279296875,22.427082061767578,22.77350425720215,48.13361167907715
1759166281.5667675,1759166281.5946965,72.57866859436035,0.2949237823486328,0.08463859558105469,20.733118057250977,20.81775665283203,22.7048397064209,49.26156997680664
1759166281.6395345,1759166281.6846783,90.22164344787598,0.20241737365722656,0.06961822509765625,21.87037467956543,21.939992904663086,22.47333526611328,46.423912048339844
1759166281.7305264,1759166281.775584,96.33898735046387,0.10013580322265625,0.06771087646484375,21.688461303710938,21.75617218017578,23.244142532348633,65.54388999938965
1759166281.8270123,1759166281.8887026,105.25035858154297,0.24366378784179688,0.06389617919921875,19.75107192993164,19.81496810913086,20.303010940551758,45.33982276916504
1759166281.9324064,1759166281.9786751,90.00539779663086,0.1609325408935547,0.06341934204101562,19.785404205322266,19.84882354736328,20.234107971191406,45.44568061828613
1759166282.0249083,1759166282.068394,87.24784851074219,0.1404285430908203,0.06747245788574219,20.28679847717285,20.354270935058594,21.767854690551758,46.22149467468262
1759166282.1156662,1759166282.1566532,94.99812126159668,0.039577484130859375,0.06651878356933594,23.87261390686035,23.939132690429688,24.214982986450195,45.801639556884766
1759166282.2107987,1759166282.2705495,85.8309268951416,0.1380443572998047,0.0629425048828125,19.80900764465332,19.871950149536133,20.24364471435547,45.133352279663086
1759166282.2967741,1759166282.359058,107.05137252807617,0.19860267639160156,0.06723403930664062,21.80314064025879,21.87037467956543,22.4149227142334,46.068668365478516
1759166282.404586,1759166282.4504123,89.75982666015625,0.18739700317382812,0.06818771362304688,20.491838455200195,20.560026168823242,21.271228790283203,65.59872627258301
1759166282.4976325,1759166282.5405514,106.55593872070312,0.1938343048095703,0.06937980651855469,20.32947540283203,20.398855209350586,21.811246871948242,46.45824432373047
1759166282.6048582,1759166282.630247,89.15972709655762,0.14066696166992188,0.06747245788574219,21.453142166137695,21.520614624023438,21.91305160522461,44.202566146850586
1759166282.69779,1759166282.7198765,87.88728713989258,0.040531158447265625,0.06699562072753906,21.49653434753418,21.56352996826172,21.851539611816406,63.22431564331055
1759166282.7858193,1759166282.8091981,89.8587703704834,0.03790855407714844,0.06628036499023438,21.36826515197754,21.434545516967773,21.707534790039062,63.08436393737793
1759166282.8758233,1759166282.8989978,89.85567092895508,0.04076957702636719,0.06604194641113281,21.29197120666504,21.358013153076172,21.638154983520508,63.74979019165039
1759166282.9662352,1759166283.0099804,92.97537803649902,0.13947486877441406,0.06270408630371094,19.789934158325195,19.852638244628906,20.307540893554688,63.539981842041016
1759166283.0636022,1759166283.1195152,81.47096633911133,0.26035308837890625,0.06341934204101562,19.924163818359375,19.98758316040039,20.59650421142578,63.76075744628906
1759166283.1496954,1759166283.1887836,89.34378623962402,0.14209747314453125,0.062465667724609375,19.77825164794922,19.840717315673828,20.299911499023438,63.39406967163086
1759166283.239163,1759166283.2784731,104.71439361572266,0.1461505889892578,0.06413459777832031,19.805431365966797,19.869565963745117,20.242691040039062,63.997745513916016
1759166283.3561811,1759166283.4109693,101.39250755310059,0.11944770812988281,0.06008148193359375,19.941091537475586,20.00117301940918,20.402908325195312,84.66958999633789
1759166283.4645925,1759166283.5024152,91.26162528991699,0.14901161193847656,0.06389617919921875,19.823312759399414,19.887208938598633,20.357131958007812,63.57264518737793
1759166283.5559955,1759166283.6121194,80.11436462402344,0.22172927856445312,0.064849853515625,19.81830596923828,19.883155822753906,20.471572875976562,63.89498710632324
1759166283.6421206,1759166283.6818476,83.73188972473145,0.1456737518310547,0.0629425048828125,19.76490020751953,19.827842712402344,20.30467987060547,63.631296157836914
1759166283.7304869,1759166283.7711823,87.4021053314209,0.14138221740722656,0.06413459777832031,19.81210708618164,19.87624168395996,20.341157913208008,63.78531455993652
1759166283.822142,1759166283.8825936,106.7197322845459,1.2767314910888672,0.0667572021484375,19.94466781616211,20.011425018310547,21.506309509277344,65.8721923828125
1759166283.933293,1759166283.9741366,87.56613731384277,0.14925003051757812,0.06389617919921875,19.761323928833008,19.825220108032227,20.17068862915039,63.89307975769043
1759166284.024664,1759166284.0641088,86.62271499633789,0.15878677368164062,0.06604194641113281,19.86837387084961,19.934415817260742,20.56264877319336,65.03462791442871
1759166284.1175928,1759166284.1755157,107.26785659790039,1.210927963256836,0.06604194641113281,20.028352737426758,20.09439468383789,21.51179313659668,66.03622436523438
1759166284.2252781,1759166284.2666495,84.57064628601074,0.15115737915039062,0.0629425048828125,19.805908203125,19.868850708007812,20.249128341674805,63.765764236450195
1759166284.3145933,1759166284.3567083,107.12361335754395,0.11968612670898438,0.06127357482910156,19.896984100341797,19.9582576751709,20.301103591918945,63.60149383544922
1759166284.4263978,1759166284.4467578,83.84919166564941,0.03933906555175781,0.06699562072753906,21.285057067871094,21.352052688598633,21.63076400756836,63.56501579284668
1759166284.512595,1759166284.5362463,90.10004997253418,0.03886222839355469,0.07295608520507812,21.466493606567383,21.53944969177246,21.81553840637207,63.48252296447754
1759166284.6028397,1759166284.626074,89.89620208740234,0.038623809814453125,0.06818771362304688,21.830320358276367,21.898508071899414,22.185802459716797,64.37063217163086
1759166284.6966753,1759166284.7211692,92.00763702392578,0.044345855712890625,0.08249282836914062,21.050691604614258,21.1331844329834,21.472454071044922,65.31238555908203
1759166284.793668,1759166284.8133545,92.01622009277344,0.04100799560546875,0.07390975952148438,22.006988525390625,22.08089828491211,22.38321304321289,64.12172317504883
1759166284.8858352,1759166284.9262679,93.02544593811035,0.13899803161621094,0.06389617919921875,19.914627075195312,19.97852325439453,20.439863204956055,64.1489028930664
1759166284.982635,1759166285.0366042,83.21094512939453,0.2200603485107422,0.06389617919921875,19.772052764892578,19.835948944091797,20.355701446533203,63.30466270446777
1759166285.0659888,1759166285.1058607,93.87016296386719,0.14090538024902344,0.0629425048828125,19.881725311279297,19.94466781616211,20.414352416992188,63.730716705322266
1759166285.1600008,1759166285.2155924,83.91904830932617,0.2219676971435547,0.06341934204101562,19.83928680419922,19.902706146240234,20.476818084716797,64.56971168518066
1759166285.2440581,1759166285.2856638,105.33666610717773,0.1876354217529297,0.06914138793945312,20.31111717224121,20.380258560180664,21.908998489379883,65.73128700256348
1759166285.3495538,1759166285.3752747,69.09823417663574,0.25534629821777344,0.06842613220214844,20.256519317626953,20.3249454498291,21.91901206970215,46.74935340881348
1759166285.4187953,1759166285.463301,89.26200866699219,0.19860267639160156,0.07319450378417969,21.648645401000977,21.721839904785156,23.11110496520996,46.79512977600098
1759166285.5081995,1759166285.5523915,89.111328125,0.5860328674316406,0.06866455078125,19.985675811767578,20.054340362548828,22.155046463012695,65.51218032836914
1759166285.5974514,1759166285.6426008,92.40841865539551,1.2664794921875,0.06556510925292969,20.039796829223633,20.105361938476562,21.58355712890625,65.61446189880371
1759166285.6939075,1759166285.733954,104.25114631652832,0.1926422119140625,0.06794929504394531,20.33519744873047,20.403146743774414,21.930217742919922,65.49191474914551
1759166285.798259,1759166285.8238723,69.10181045532227,0.2167224884033203,0.06818771362304688,20.30634880065918,20.374536514282227,21.877527236938477,46.68903350830078
1759166285.8675086,1759166285.9104543,71.37465476989746,0.2892017364501953,0.06699562072753906,22.989749908447266,23.056745529174805,24.54209327697754,66.62607192993164
1759166285.9426308,1759166286.0004466,83.61506462097168,0.03719329833984375,0.07224082946777344,24.088382720947266,24.16062355041504,24.31035041809082,26.399850845336914
1759166286.029634,1759166286.0899508,86.02499961853027,0.03814697265625,0.06628036499023438,24.009227752685547,24.07550811767578,24.224519729614258,26.347875595092773
1759166286.1158013,1759166286.178971,92.63181686401367,0.5583763122558594,0.06794929504394531,19.791841506958008,19.859790802001953,22.002220153808594,84.30862426757812
1759166286.2125874,1759166286.2496064,87.51559257507324,0.13375282287597656,0.06175041198730469,19.884347915649414,19.94609832763672,20.363569259643555,63.541412353515625
1759166286.3037612,1759166286.3598413,103.31153869628906,0.12111663818359375,0.06222724914550781,19.841670989990234,19.903898239135742,20.302534103393555,85.19434928894043
1759166286.4155881,1759166286.4713416,105.24845123291016,0.11897087097167969,0.06842613220214844,19.769668579101562,19.83809471130371,20.241498947143555,84.11908149719238
1759166286.5255892,1759166286.562476,82.26394653320312,0.1423358917236328,0.08606910705566406,19.81377601623535,19.899845123291016,20.322084426879883,63.5075569152832
1759166286.6124449,1759166286.6732438,106.06956481933594,1.2705326080322266,0.06532669067382812,20.050525665283203,20.11585235595703,21.60477638244629,66.01500511169434
1759166286.723842,1759166286.764746,84.15842056274414,0.1304149627685547,0.06747245788574219,20.357370376586914,20.424842834472656,20.915985107421875,45.2876091003418
1759166286.808143,1759166286.852872,91.70365333557129,1.2519359588623047,0.06628036499023438,20.01953125,20.085811614990234,21.55613899230957,65.64903259277344
1759166286.903911,1759166286.9437287,83.97912979125977,0.1442432403564453,0.06365776062011719,19.790172576904297,19.853830337524414,20.313501358032227,63.735008239746094
1759166286.9965875,1759166287.0530074,86.14850044250488,0.21839141845703125,0.06341934204101562,19.850730895996094,19.91415023803711,20.481109619140625,64.55564498901367
1759166287.0866296,1759166287.1433914,83.21976661682129,1.310586929321289,0.06604194641113281,20.05791664123535,20.123958587646484,21.709918975830078,65.67645072937012
1759166287.1699932,1759166287.234682,89.06745910644531,0.3299713134765625,0.06818771362304688,20.037174224853516,20.105361938476562,21.0115909576416,45.9284782409668
1759166287.263547,1759166287.3243215,84.51128005981445,0.13494491577148438,0.08344650268554688,19.85764503479004,19.941091537475586,20.30467987060547,45.317649841308594
1759166287.3524551,1759166287.4137173,86.42935752868652,0.13303756713867188,0.06365776062011719,19.885778427124023,19.94943618774414,20.304441452026367,45.137643814086914
1759166287.443588,1759166287.5032523,89.25437927246094,0.1347064971923828,0.0629425048828125,19.89150047302246,19.954442977905273,20.31731605529785,45.07565498352051
1759166287.5329835,1759166287.5929334,83.90164375305176,0.1380443572998047,0.06318092346191406,19.875764846801758,19.938945770263672,20.31731605529785,44.99554634094238
1759166287.6214876,1759166287.6827443,89.35713768005371,0.13256072998046875,0.06341934204101562,19.888639450073242,19.952058792114258,20.298004150390625,45.18485069274902
1759166287.7109869,1759166287.7726932,84.85889434814453,0.13184547424316406,0.06198883056640625,19.989490509033203,20.05147933959961,20.393848419189453,45.17507553100586
1759166287.7959423,1759166287.8394098,88.05084228515625,0.039577484130859375,0.07176399230957031,22.583484649658203,22.655248641967773,22.927284240722656,44.83842849731445
1759166287.886633,1759166287.930408,108.32357406616211,0.14781951904296875,0.06699562072753906,21.680593490600586,21.747589111328125,22.15433120727539,45.18485069274902
1759166288.0010252,1759166288.0421748,85.86454391479492,0.141143798828125,0.06222724914550781,19.816875457763672,19.87910270690918,20.34139633178711,63.70878219604492
1759166288.0955877,1759166288.152217,112.24889755249023,0.12111663818359375,0.06198883056640625,19.87433433532715,19.936323165893555,20.344257354736328,84.87153053283691
1759166288.207978,1759166288.263636,80.10578155517578,0.21839141845703125,0.06341934204101562,19.983768463134766,20.04718780517578,20.615100860595703,63.996076583862305
1759166288.2966044,1759166288.3531415,83.31036567687988,0.22912025451660156,0.0629425048828125,19.78135108947754,19.84429359436035,20.435571670532227,63.529253005981445
1759166288.3827705,1759166288.422991,103.47414016723633,0.31447410583496094,0.06556510925292969,19.89269256591797,19.9582576751709,20.81775665283203,64.06331062316895
1759166288.4863853,1759166288.5117824,48.6600399017334,0.12874603271484375,0.062465667724609375,19.781112670898438,19.843578338623047,20.19333839416504,44.83604431152344
1759166288.5394797,1759166288.6010263,85.39819717407227,0.13327598571777344,0.0629425048828125,19.7906494140625,19.853591918945312,20.206689834594727,44.94595527648926
1759166288.6295888,1759166288.6903744,87.04352378845215,0.1418590545654297,0.06365776062011719,19.786357879638672,19.85001564025879,20.23005485534668,44.95811462402344
1759166288.7167768,1759166288.77857,106.38856887817383,0.1995563507080078,0.06771087646484375,21.620512008666992,21.688222885131836,23.086071014404297,46.4482307434082
1759166288.8237123,1759166288.868449,89.55979347229004,0.044345855712890625,0.07200241088867188,22.681474685668945,22.753477096557617,23.04983139038086,44.91424560546875
1759166288.9134164,1759166288.9575903,88.78684043884277,0.6284713745117188,0.06699562072753906,19.88363265991211,19.95062828063965,21.16537094116211,64.36324119567871
1759166289.0023446,1759166289.046884,73.49419593811035,0.21886825561523438,0.0629425048828125,19.8209285736084,19.88387107849121,20.477294921875,63.99965286254883
1759166289.0805902,1759166289.1365392,109.26342010498047,0.11944770812988281,0.06127357482910156,19.861221313476562,19.922494888305664,20.322084426879883,84.61642265319824
1759166289.19216,1759166289.2483702,82.916259765625,0.22649765014648438,0.06365776062011719,19.82855796813965,19.892215728759766,20.4775333404541,65.0486946105957
1759166289.279474,1759166289.3394291,104.95138168334961,1.252889633178711,0.06580352783203125,19.908905029296875,19.974708557128906,21.436452865600586,66.28704071044922
1759166289.387908,1759166289.4306173,106.95385932922363,0.19121170043945312,0.06842613220214844,20.308256149291992,20.37668228149414,20.815610885620117,65.34790992736816
1759166289.4950345,1759166289.5211334,51.10478401184082,0.41604042053222656,0.07414817810058594,20.162343978881836,20.236492156982422,21.04926109313965,46.05698585510254
1759166289.5546277,1759166289.6153905,111.42539978027344,0.18858909606933594,0.07486343383789062,20.07150650024414,20.14636993408203,20.607471466064453,47.514915466308594
1759166289.6666257,1759166289.7088046,86.6546630859375,0.13780593872070312,0.07605552673339844,20.699024200439453,20.77507972717285,22.410154342651367,47.88351058959961
1759166289.75346,1759166289.7988079,93.1999683380127,0.11157989501953125,0.06890296936035156,22.729158401489258,22.79806137084961,24.299144744873047,68.71223449707031
1759166289.8506525,1759166289.8916166,85.6785774230957,0.04220008850097656,0.06628036499023438,22.377490997314453,22.443771362304688,22.715330123901367,45.24087905883789
1759166289.9365096,1759166289.981818,93.16897392272949,0.04100799560546875,0.0667572021484375,23.2241153717041,23.29087257385254,23.565292358398438,45.38130760192871
1759166290.0298378,1759166290.0738761,107.80453681945801,0.14448165893554688,0.06723403930664062,21.71039581298828,21.777629852294922,22.174596786499023,45.36151885986328
1759166290.1377923,1759166290.1635795,69.43392753601074,0.25153160095214844,0.06842613220214844,20.343542098999023,20.411968231201172,22.008657455444336,46.83041572570801
1759166290.2073724,1759166290.2519662,90.0719165802002,0.19931793212890625,0.06842613220214844,22.162914276123047,22.231340408325195,23.730039596557617,47.393083572387695
1759166290.2976105,1759166290.342339,70.3282356262207,0.2956390380859375,0.06628036499023438,20.37644386291504,20.442724227905273,22.16792106628418,66.03503227233887
1759166290.375593,1759166290.4341285,84.0463638305664,0.1399517059326172,0.0629425048828125,19.80137825012207,19.864320755004883,20.255565643310547,45.47262191772461
1759166290.459791,1759166290.523465,109.15923118591309,0.21457672119140625,0.06890296936035156,21.967411041259766,22.036314010620117,23.643970489501953,47.80721664428711
1759166290.5691228,1759166290.6139443,90.70825576782227,0.6525516510009766,0.06866455078125,19.935131072998047,20.003795623779297,22.08113670349121,65.91582298278809
1759166290.6636078,1759166290.7066483,107.33675956726074,0.48923492431640625,0.06937980651855469,20.380020141601562,20.449399948120117,22.32813835144043,66.17879867553711
1759166290.7710733,1759166290.79765,70.50347328186035,0.25463104248046875,0.07033348083496094,20.39194107055664,20.4622745513916,22.216320037841797,47.70970344543457
1759166290.8417387,1759166290.8863358,89.97774124145508,0.20599365234375,0.06771087646484375,22.216796875,22.284507751464844,22.81975746154785,46.385765075683594
1759166290.931872,1759166290.9765441,74.10502433776855,0.4909038543701172,0.06461143493652344,19.888877868652344,19.953489303588867,20.828962326049805,65.64879417419434
1759166291.0096364,1759166291.0456038,81.43353462219238,0.08249282836914062,0.06794929504394531,22.899627685546875,22.96757698059082,23.29230308532715,65.58561325073242
1759166291.091233,1759166291.1356878,89.8282527923584,0.6606578826904297,0.06890296936035156,19.937992095947266,20.006895065307617,22.068262100219727,65.60516357421875
1759166291.1812189,1759166291.227129,93.42622756958008,0.339508056640625,0.07343292236328125,20.884275436401367,20.95770835876465,21.468639373779297,66.1468505859375
1759166291.275767,1759166291.319329,107.98764228820801,0.15473365783691406,0.07462501525878906,21.852493286132812,21.9271183013916,22.351741790771484,65.57559967041016
1759166291.383879,1759166291.4099364,69.84424591064453,0.22292137145996094,0.07033348083496094,20.493507385253906,20.563840866088867,21.182775497436523,46.22817039489746
1759166291.4538856,1759166291.4993784,74.08738136291504,1.3811588287353516,0.06651878356933594,20.29895782470703,20.365476608276367,21.96669578552246,66.47992134094238
1759166291.5281334,1759166291.5686932,86.50803565979004,0.040531158447265625,0.06628036499023438,22.365570068359375,22.43185043334961,22.705554962158203,45.06349563598633
1759166291.6195598,1759166291.681474,111.07730865478516,0.1621246337890625,0.06389617919921875,19.88077163696289,19.94466781616211,20.308732986450195,45.77207565307617
1759166291.731091,1759166291.772412,105.4387092590332,0.2033710479736328,0.06818771362304688,20.479679107666016,20.547866821289062,22.032976150512695,46.7832088470459
1759166291.8406615,1759166291.8635147,95.12114524841309,0.04267692565917969,0.06699562072753906,21.599531173706055,21.666526794433594,21.947622299194336,63.41838836669922
1759166291.9376197,1759166291.9758737,107.0551872253418,0.11897087097167969,0.062465667724609375,19.890308380126953,19.952774047851562,20.29252052307129,63.88378143310547
1759166292.0452201,1759166292.0676906,113.03496360778809,0.1404285430908203,0.06794929504394531,20.418405532836914,20.48635482788086,20.850181579589844,70.45745849609375
1759166292.1583843,1759166292.1633332,47.00636863708496,0.03314018249511719,0.06747245788574219,20.313739776611328,20.38121223449707,20.554304122924805,21.747827529907227
1759166292.2054946,1759166292.250068,90.4843807220459,0.07414817810058594,0.06985664367675781,23.648500442504883,23.71835708618164,23.913145065307617,67.5959587097168
1759166292.2961466,1759166292.3409133,89.80202674865723,0.6976127624511719,0.06818771362304688,19.921064376831055,19.9892520904541,21.164417266845703,64.73517417907715
1759166292.386105,1759166292.430728,71.75922393798828,0.23865699768066406,0.0629425048828125,19.766569137573242,19.829511642456055,20.420074462890625,64.12959098815918
1759166292.4636083,1759166292.5205944,83.67800712585449,0.21958351135253906,0.06365776062011719,19.785404205322266,19.849061965942383,20.419597625732422,64.88585472106934
1759166292.547424,1759166292.5903857,107.09428787231445,0.19693374633789062,0.06937980651855469,20.77960968017578,20.848989486694336,22.406339645385742,66.02954864501953
1759166292.6551516,1759166292.681082,89.6148681640625,0.05435943603515625,0.09441375732421875,21.57902717590332,21.67344093322754,21.970272064208984,63.34543228149414
1759166292.7449224,1759166292.770622,69.20266151428223,0.5366802215576172,0.06914138793945312,19.984722137451172,20.053863525390625,21.013259887695312,45.51815986633301
1759166292.8176453,1759166292.86115,69.34475898742676,0.20170211791992188,0.0667572021484375,19.85955238342285,19.92630958557129,20.546436309814453,45.662879943847656
1759166292.8871586,1759166292.9302344,110.53609848022461,0.14638900756835938,0.06747245788574219,22.146224975585938,22.21369743347168,22.6285457611084,46.007394790649414
1759166293.0076172,1759166293.0447907,83.38165283203125,0.14829635620117188,0.06556510925292969,19.923925399780273,19.989490509033203,20.499706268310547,64.5136833190918
1759166293.1056125,1759166293.1567783,105.24225234985352,0.11897087097167969,0.061511993408203125,26.64327621459961,26.704788208007812,27.066707611083984,93.29843521118164
1759166293.2109878,1759166293.2496803,107.98025131225586,0.2071857452392578,0.07033348083496094,25.536537170410156,25.606870651245117,65.9322738647461,67.32559204101562
1759166293.3191001,1759166293.3455732,89.99419212341309,0.041484832763671875,0.07033348083496094,21.378278732299805,21.448612213134766,21.739482879638672,64.05162811279297
1759166293.4092746,1759166293.436086,72.38602638244629,0.6067752838134766,0.07343292236328125,19.91558074951172,19.989013671875,22.182703018188477,47.875165939331055
1759166293.4817886,1759166293.5244467,70.86825370788574,0.041961669921875,0.07319450378417969,24.875164031982422,24.9483585357666,25.100231170654297,47.45149612426758
1759166293.556657,1759166293.6155632,86.28273010253906,0.03910064697265625,0.06747245788574219,25.429964065551758,25.4974365234375,25.663375854492188,27.750730514526367
1759166293.6431108,1759166293.7058532,96.79937362670898,0.6096363067626953,0.0743865966796875,19.950151443481445,20.024538040161133,22.598981857299805,84.43331718444824
1759166293.7441986,1759166293.778493,88.67168426513672,0.15044212341308594,0.06508827209472656,19.922494888305664,19.98758316040039,20.447969436645508,63.81964683532715
1759166293.8330426,1759166293.89035,81.20846748352051,0.24056434631347656,0.064849853515625,19.83475685119629,19.899606704711914,20.559310913085938,64.64362144470215
1759166293.9266632,1759166293.9824398,104.36797142028809,0.13518333435058594,0.06508827209472656,19.91128921508789,19.976377487182617,20.458221435546875,84.96618270874023
1759166294.0406215,1759166294.0544224,81.09855651855469,0.04029273986816406,0.07534027099609375,21.510839462280273,21.586179733276367,21.872997283935547,64.0103816986084
1759166294.1218517,1759166294.14618,88.58251571655273,0.03886222839355469,0.06937980651855469,21.710872650146484,21.78025245666504,22.062301635742188,64.28837776184082
1759166294.2105625,1759166294.236557,69.59247589111328,0.5517005920410156,0.06937980651855469,19.965410232543945,20.0347900390625,22.043228149414062,46.99206352233887
1759166294.2803142,1759166294.3240116,75.31547546386719,0.10061264038085938,0.0667572021484375,22.8726863861084,22.939443588256836,23.18716049194336,45.752525329589844
1759166294.355778,1759166294.4163945,88.8509750366211,0.1399517059326172,0.06461143493652344,19.884109497070312,19.948720932006836,20.331382751464844,45.266151428222656
1759166294.4447749,1759166294.506239,90.85988998413086,0.133514404296875,0.0629425048828125,19.722461700439453,19.785404205322266,20.130634307861328,45.122385025024414
1759166294.535787,1759166294.5944188,87.17966079711914,1.100778579711914,0.07033348083496094,21.756410598754883,21.826744079589844,24.297714233398438,47.61099815368652
1759166294.6231272,1759166294.6849902,87.98360824584961,0.038623809814453125,0.06818771362304688,24.30438995361328,24.372577667236328,24.528026580810547,27.178525924682617
1759166294.7112706,1759166294.7736487,91.12000465393066,0.5879402160644531,0.06890296936035156,19.94919776916504,20.01810073852539,22.143125534057617,83.63842964172363
1759166294.8024988,1759166294.8233826,88.20986747741699,0.03838539123535156,0.06651878356933594,21.690845489501953,21.75736427307129,22.035837173461914,63.689231872558594
1759166294.8908827,1759166294.9142802,89.32924270629883,0.0400543212890625,0.07176399230957031,22.754907608032227,22.826671600341797,23.157596588134766,65.05346298217773
1759166294.9804084,1759166295.0071332,70.89495658874512,0.6260871887207031,0.07128715515136719,19.941329956054688,20.012617111206055,22.275924682617188,47.87802696228027
1759166295.051482,1759166295.096145,75.54769515991211,0.10085105895996094,0.07224082946777344,22.744178771972656,22.81641960144043,23.32329750061035,46.968936920166016
1759166295.1272109,1759166295.1899693,91.85338020324707,0.06699562072753906,0.091552734375,25.6044864654541,25.6960391998291,25.93088150024414,50.35805702209473
1759166295.2226982,1759166295.284925,95.37148475646973,0.04315376281738281,0.09179115295410156,26.415348052978516,26.507139205932617,26.741981506347656,29.320716857910156
1759166295.3182628,1759166295.3799136,93.80483627319336,0.0438690185546875,0.09083747863769531,26.865005493164062,26.955842971801758,27.190685272216797,29.435396194458008
1759166295.4156857,1759166295.4759161,89.60533142089844,0.04363059997558594,0.0934600830078125,26.73029899597168,26.823759078979492,27.065277099609375,29.64925765991211
1759166295.5054874,1759166295.5705855,90.82317352294922,0.3170967102050781,0.08845329284667969,20.93338966369629,21.02184295654297,22.165536880493164,86.1363410949707
1759166295.5979235,1759166295.623273,95.84426879882812,22.2165584564209,0.09202957153320312,20.09296417236328,20.184993743896484,42.81282424926758,65.55342674255371
1759166295.6939442,1759166295.7163289,86.36713027954102,0.040531158447265625,0.07176399230957031,21.52729034423828,21.59905433654785,21.925687789916992,64.34345245361328
1759166295.7888243,1759166295.8096998,103.24311256408691,0.1380443572998047,0.0705718994140625,20.473718643188477,20.54429054260254,20.90930938720703,64.07690048217773
1759166295.8921893,1759166295.8944204,30.70807456970215,0.016450881958007812,0.07295608520507812,25.491952896118164,25.564908981323242,25.665998458862305,26.752948760986328
1759166295.926661,1759166295.9870532,105.9868335723877,0.13971328735351562,0.06771087646484375,23.593425750732422,23.661136627197266,23.934364318847656,27.345895767211914
1759166296.032799,1759166296.077514,89.99943733215332,0.31065940856933594,0.0667572021484375,20.354509353637695,20.421266555786133,22.060155868530273,65.88459014892578
1759166296.1229482,1759166296.1685448,94.69056129455566,1.3294219970703125,0.06580352783203125,20.133256912231445,20.199060440063477,21.738290786743164,66.49971008300781
