Timestamp,ArrivalTime,TotalTime(ms),WaitTime(ms),DecodeTime(ms),InferTime(ms),ServerComputeTime(ms),TotalServer(ms),Total
1759159725.556609,1759159725.7553525,324.94211196899414,0.4334449768066406,0.08392333984375,90.07453918457031,90.15846252441406,92.4224853515625,179.55756187438965
1759159725.8856359,1759159725.983203,199.01013374328613,0.11706352233886719,0.15115737915039062,29.0071964263916,29.158353805541992,29.68597412109375,78.48477363586426
1759159726.0851948,1759159726.133673,139.37020301818848,0.07319450378417969,0.07963180541992188,24.930477142333984,25.010108947753906,25.36463737487793,70.18399238586426
1759159726.2247145,1759159726.275696,145.31660079956055,0.06937980651855469,0.06437301635742188,26.90601348876953,26.970386505126953,27.441978454589844,72.1578598022461
1759159726.370174,1759159726.421787,100.66604614257812,0.949859619140625,0.13589859008789062,20.894765853881836,21.030664443969727,24.19567108154297,74.66578483581543
1759159726.471037,1759159726.5673018,149.63698387145996,0.29397010803222656,0.07939338684082031,23.07581901550293,23.15521240234375,23.82826805114746,77.06332206726074
1759159726.6250138,1759159726.711723,140.9773826599121,0.34117698669433594,0.06580352783203125,22.423505783081055,22.489309310913086,23.683786392211914,71.71154022216797
1759159726.7665644,1759159726.852643,138.35835456848145,0.24890899658203125,0.07009506225585938,22.60589599609375,22.67599105834961,23.50020408630371,92.90266036987305
1759159726.905045,1759159726.969489,147.00889587402344,0.05793571472167969,0.06270408630371094,27.022838592529297,27.085542678833008,27.408361434936523,71.24614715576172
1759159727.0585408,1759159727.1584554,131.4220428466797,0.2789497375488281,0.05936622619628906,20.38097381591797,20.440340042114258,21.20518684387207,69.55814361572266
1759159727.1946356,1759159727.2831073,159.70921516418457,0.3285408020019531,0.10275840759277344,22.02129364013672,22.124052047729492,23.018836975097656,76.54213905334473
1759159727.355812,1759159727.432684,153.15485000610352,0.43201446533203125,0.08440017700195312,21.668434143066406,21.75283432006836,23.115158081054688,96.2362289428711
1759159727.5091956,1759159727.5800114,140.5346393585205,1.4193058013916016,0.09465217590332031,21.436691284179688,21.531343460083008,23.829221725463867,74.82218742370605
1759159727.6516352,1759159727.7225661,142.0764923095703,0.20122528076171875,0.072479248046875,23.044109344482422,23.116588592529297,24.04189109802246,94.8038101196289
1759159727.7976267,1759159727.8647552,145.07484436035156,0.07367134094238281,0.07510185241699219,26.041030883789062,26.116132736206055,26.580333709716797,93.35470199584961
1759159727.9447327,1759159728.009984,150.2821445465088,0.06508827209472656,0.08487701416015625,26.007413864135742,26.0922908782959,26.51214599609375,71.74015045166016
1759159728.1025653,1759159728.202634,126.49178504943848,0.4391670227050781,0.08392333984375,20.992517471313477,21.076440811157227,22.19367027282715,73.55713844299316
1759159728.2336428,1759159728.3024714,155.30943870544434,0.06461143493652344,0.08463859558105469,26.57604217529297,26.660680770874023,27.101993560791016,72.40915298461914
1759159728.392556,1759159728.4762673,133.4238052368164,0.26106834411621094,0.08368492126464844,21.0874080657959,21.171092987060547,22.04132080078125,73.84514808654785
1759159728.534584,1759159728.623279,158.79368782043457,0.4208087921142578,0.0820159912109375,21.068811416625977,21.150827407836914,22.176742553710938,73.53854179382324
1759159728.694939,1759159728.770022,131.99210166931152,0.4756450653076172,0.08654594421386719,21.37017250061035,21.45671844482422,23.021221160888672,73.58074188232422
1759159728.8271382,1759159728.9144733,138.7929916381836,0.21648406982421875,0.07557868957519531,20.790815353393555,20.86639404296875,21.591663360595703,71.83027267456055
1759159728.9735973,1759159729.0586696,136.3966464996338,0.2315044403076172,0.08344650268554688,21.147489547729492,21.23093605041504,22.042036056518555,73.79508018493652
1759159729.1186032,1759159729.2041407,159.21664237976074,0.45037269592285156,0.09417533874511719,21.803617477416992,21.89779281616211,23.041486740112305,77.15511322021484
1759159729.2785983,1759159729.3536003,139.3582820892334,0.6463527679443359,0.08630752563476562,22.27497100830078,22.361278533935547,23.402690887451172,95.73483467102051
1759159729.4197314,1759159729.519936,127.20155715942383,0.2906322479248047,0.06318092346191406,20.276784896850586,20.3399658203125,21.068096160888672,69.6713924407959
1759159729.5516038,1759159729.6122477,135.1785659790039,0.06103515625,0.07772445678710938,26.581287384033203,26.659011840820312,27.029991149902344,71.33102416992188
1759159729.6946306,1759159729.7828674,140.02084732055664,0.19216537475585938,0.06985664367675781,20.616531372070312,20.68638801574707,21.358966827392578,72.15118408203125
1759159729.8441582,1759159729.9510417,138.81182670593262,0.3981590270996094,0.0896453857421875,20.700931549072266,20.790576934814453,21.970748901367188,72.67045974731445
1759159729.9906209,1759159730.09917,136.71159744262695,0.3864765167236328,0.07963180541992188,21.18659019470215,21.26622200012207,22.32050895690918,73.92597198486328
1759159730.1436336,1759159730.2449214,152.62556076049805,0.2799034118652344,0.06628036499023438,20.58863639831543,20.654916763305664,21.318912506103516,93.28007698059082
1759159730.304574,1759159730.3854508,154.36267852783203,1.4295578002929688,0.07104873657226562,21.362781524658203,21.43383026123047,23.319721221923828,92.74697303771973
1759159730.469275,1759159730.5514755,153.40232849121094,1.354217529296875,0.0629425048828125,20.645618438720703,20.708560943603516,22.434234619140625,91.69960021972656
1759159730.6268508,1759159730.691418,137.34006881713867,0.1888275146484375,0.06580352783203125,22.96733856201172,23.03314208984375,24.7652530670166,91.00961685180664
1759159730.7643037,1759159730.8304992,145.7061767578125,0.0705718994140625,0.08559226989746094,26.64351463317871,26.729106903076172,27.123212814331055,73.37689399719238
1759159730.9225798,1759159731.00529,143.42594146728516,0.2422332763671875,0.07677078247070312,22.069692611694336,22.14646339416504,22.885560989379883,74.93090629577637
1759159731.0745947,1759159731.1547446,149.11365509033203,0.31304359436035156,0.08487701416015625,21.202802658081055,21.28767967224121,22.05204963684082,74.32937622070312
1759159731.225627,1759159731.298842,125.71215629577637,0.4038810729980469,0.07462501525878906,21.108150482177734,21.182775497436523,22.516965866088867,72.31760025024414
1759159731.3546233,1759159731.4421797,136.7344856262207,0.30350685119628906,0.07915496826171875,21.008968353271484,21.088123321533203,22.207975387573242,73.53448867797852
1759159731.5010731,1759159731.610368,138.02623748779297,0.3933906555175781,0.07677078247070312,20.894765853881836,20.97153663635254,21.95596694946289,72.53098487854004
1759159731.6516213,1759159731.7339854,134.02748107910156,0.25343894958496094,0.08368492126464844,21.399736404418945,21.483421325683594,22.352933883666992,73.78268241882324
1759159731.795213,1759159731.8801513,135.53309440612793,0.2281665802001953,0.08821487426757812,21.352529525756836,21.440744400024414,22.218942642211914,74.45597648620605
1759159731.9395883,1759159732.0290504,137.2835636138916,0.3135204315185547,0.11348724365234375,21.68750762939453,21.800994873046875,22.756576538085938,75.25444030761719
1759159732.0852413,1759159732.176678,142.41647720336914,0.2529621124267578,0.08416175842285156,21.700143814086914,21.784305572509766,22.66073226928711,73.79841804504395
1759159732.2375774,1759159732.3451812,138.4263038635254,0.4601478576660156,0.08535385131835938,21.210193634033203,21.295547485351562,22.51410484313965,73.38619232177734
1759159732.3855977,1759159732.4909697,134.3820095062256,0.3402233123779297,0.07462501525878906,20.7517147064209,20.826339721679688,21.797657012939453,73.10700416564941
1759159732.5227182,1759159732.6114411,144.5598602294922,0.4711151123046875,0.08416175842285156,23.461103439331055,23.545265197753906,25.07781982421875,74.99122619628906
1759159732.6702704,1759159732.7592578,160.48765182495117,0.3604888916015625,0.08273124694824219,21.61240577697754,21.69513702392578,22.72796630859375,75.68240165710449
1759159732.8309972,1759159732.9052422,150.67148208618164,1.9369125366210938,0.08416175842285156,21.82316780090332,21.907329559326172,24.277448654174805,97.50747680664062
1759159732.9823716,1759159733.052186,138.8561725616455,0.7860660552978516,0.07081031799316406,20.980119705200195,21.05093002319336,22.884845733642578,94.12026405334473
1759159733.1214063,1759159733.1933665,105.61037063598633,0.6122589111328125,0.07653236389160156,22.321462631225586,22.397994995117188,24.173736572265625,75.27446746826172
1759159733.227187,1759159733.3147054,159.56473350524902,0.2288818359375,0.08153915405273438,25.1920223236084,25.273561477661133,27.18377113342285,74.5697021484375
1759159733.3877027,1759159733.4639063,145.88618278503418,0.20003318786621094,0.08392333984375,24.61099624633789,24.69491958618164,25.391817092895508,94.72799301147461
1759159733.5337734,1759159733.6049287,139.38379287719727,0.43392181396484375,0.06532669067382812,21.114349365234375,21.179676055908203,22.216796875,92.91672706604004
1759159733.6733334,1759159733.7479792,126.64127349853516,0.27251243591308594,0.05841255187988281,20.595788955688477,20.65420150756836,21.33798599243164,95.83640098571777
1759159733.8004813,1759159733.866088,138.17286491394043,0.18835067749023438,0.06413459777832031,22.48978614807129,22.55392074584961,23.357152938842773,92.06199645996094
1759159733.93884,1759159734.0071433,157.6552391052246,0.2262592315673828,0.06580352783203125,22.413253784179688,22.47905731201172,23.251056671142578,92.8487777709961
1759159734.0967395,1759159734.149257,102.83541679382324,0.5249977111816406,0.08487701416015625,21.82316780090332,21.908044815063477,24.581193923950195,75.70767402648926
1759159734.199804,1759159734.2963514,146.8949317932129,1.5671253204345703,0.07700920104980469,21.302223205566406,21.37923240661621,23.41747283935547,75.3774642944336
1759159734.3509853,1759159734.4206772,144.64735984802246,0.06532669067382812,0.0820159912109375,25.889158248901367,25.971174240112305,26.367902755737305,71.93589210510254
1759159734.500596,1759159734.5638504,138.05627822875977,0.06198883056640625,0.07486343383789062,25.620222091674805,25.695085525512695,26.087045669555664,71.73895835876465
1759159734.6389015,1759159734.7077582,141.22653007507324,0.06270408630371094,0.07915496826171875,26.223421096801758,26.302576065063477,26.79920196533203,72.71790504455566
1759159734.7826495,1759159734.854169,146.04735374450684,0.0629425048828125,0.08130073547363281,26.19647979736328,26.277780532836914,26.69239044189453,73.06361198425293
1759159734.9326096,1759159734.9993262,142.1034336090088,0.06413459777832031,0.09131431579589844,26.396512985229492,26.48782730102539,26.963472366333008,73.5015869140625
1759159735.0749533,1759159735.1449354,159.98315811157227,0.06580352783203125,0.08153915405273438,26.885032653808594,26.966571807861328,27.420997619628906,74.09930229187012
1759159735.2351289,1759159735.3217206,165.8651828765869,0.2734661102294922,0.08654594421386719,21.369218826293945,21.455764770507812,22.347688674926758,74.74064826965332
1759159735.4011903,1759159735.4694998,148.77033233642578,0.24199485778808594,0.08440017700195312,21.126508712768555,21.210908889770508,22.03822135925293,93.59169006347656
1759159735.560563,1759159735.66295,133.45003128051758,0.7171630859375,0.08392333984375,21.09694480895996,21.18086814880371,23.029804229736328,93.42479705810547
1759159735.6986184,1759159735.8072693,139.40167427062988,0.644683837890625,0.07224082946777344,21.313905715942383,21.386146545410156,23.023605346679688,91.55154228210449
1759159735.8413417,1759159735.9100993,137.35580444335938,0.23818016052246094,0.0820159912109375,21.180152893066406,21.262168884277344,22.04608917236328,92.88334846496582
1759159735.9826458,1759159736.0326316,164.62278366088867,0.18262863159179688,0.09274482727050781,23.346662521362305,23.439407348632812,24.115562438964844,73.31657409667969
1759159736.148491,1759159736.1795082,123.54850769042969,0.15497207641601562,0.08702278137207031,25.03180503845215,25.11882781982422,25.52509307861328,50.009727478027344
1759159736.2722757,1759159736.3236492,98.9847183227539,0.46133995056152344,0.06985664367675781,21.235942840576172,21.30579948425293,22.9644775390625,72.72768020629883
1759159736.3714392,1759159736.4642358,124.53246116638184,0.4699230194091797,0.07104873657226562,20.755767822265625,20.82681655883789,21.940231323242188,72.67451286315918
1759159736.5005574,1759159736.6082687,156.98719024658203,0.83160400390625,0.07486343383789062,20.79296112060547,20.86782455444336,23.495197296142578,74.42522048950195
1759159736.6577487,1759159736.7558196,150.1789093017578,1.9695758819580078,0.09799003601074219,21.244287490844727,21.34227752685547,23.852109909057617,76.15995407104492
1759159736.8116503,1759159736.8985102,131.32643699645996,0.1595020294189453,0.061511993408203125,20.570993423461914,20.632505416870117,21.155118942260742,69.52548027038574
1759159736.947089,1759159737.0157967,159.33585166931152,0.1575946807861328,0.06628036499023438,24.52683448791504,24.593114852905273,25.026321411132812,70.45149803161621
1759159737.1070206,1759159737.157253,119.90475654602051,0.820159912109375,0.06628036499023438,23.160219192504883,23.226499557495117,24.61385726928711,73.8365650177002
1759159737.2271056,1759159737.2986956,119.29464340209961,0.7109642028808594,0.06699562072753906,20.64967155456543,20.71666717529297,23.05150032043457,72.5405216217041
1759159737.346598,1759159737.4445772,151.12042427062988,1.7037391662597656,0.09465217590332031,21.34227752685547,21.43692970275879,23.535490036010742,76.49421691894531
1759159737.5065637,1759159737.5955563,137.52031326293945,0.2620220184326172,0.09894371032714844,21.398544311523438,21.497488021850586,22.46689796447754,75.13046264648438
1759159737.6535776,1759159737.7435064,146.3468074798584,0.20551681518554688,0.0743865966796875,20.844221115112305,20.918607711791992,21.61264419555664,72.17788696289062
1759159737.803609,1759159737.907271,129.69636917114258,0.3712177276611328,0.07343292236328125,20.965576171875,21.03900909423828,22.05801010131836,71.65169715881348
1759159737.9416313,1759159738.0522192,143.33820343017578,0.49805641174316406,0.08344650268554688,21.108388900756836,21.191835403442383,22.382736206054688,73.06218147277832
1759159738.0871158,1759159738.198421,143.83673667907715,0.4000663757324219,0.07963180541992188,21.081924438476562,21.161556243896484,22.249460220336914,72.99232482910156
1759159738.2366047,1759159738.3229287,155.10845184326172,0.2830028533935547,0.08320808410644531,21.35634422302246,21.439552307128906,22.325754165649414,74.39208030700684
1759159738.4029665,1759159738.4692285,138.77248764038086,0.24962425231933594,0.08296966552734375,21.050453186035156,21.1334228515625,21.962881088256836,93.96791458129883
1759159738.5467412,1759159738.6605763,151.2010097503662,0.7531642913818359,0.08845329284667969,21.56662940979004,21.65508270263672,23.648977279663086,94.84577178955078
1759159738.698145,1759159738.787969,165.22216796875,0.7197856903076172,0.09274482727050781,22.525787353515625,22.618532180786133,23.91958236694336,96.80724143981934
1759159738.868691,1759159738.9574502,144.2582607269287,0.4096031188964844,0.08225440979003906,21.318435668945312,21.40069007873535,22.6747989654541,92.81134605407715
1759159739.017609,1759159739.0802202,145.34521102905273,0.179290771484375,0.07867813110351562,20.76125144958496,20.839929580688477,21.443605422973633,91.50147438049316
1759159739.1653624,1759159739.2482872,137.18390464782715,0.3600120544433594,0.07939338684082031,20.936012268066406,21.015405654907227,22.207260131835938,92.90790557861328
1759159739.3026717,1759159739.4174592,144.71197128295898,0.8232593536376953,0.08606910705566406,22.04132080078125,22.127389907836914,24.16253089904785,96.07315063476562
1759159739.457619,1759159739.543305,142.31395721435547,0.3371238708496094,0.07414817810058594,20.949602127075195,21.02375030517578,21.987199783325195,91.60232543945312
1759159739.6041749,1759159739.6846416,138.35811614990234,0.2696514129638672,0.06532669067382812,20.33543586730957,20.4007625579834,21.266698837280273,90.35563468933105
1759159739.7475562,1759159739.8483195,132.3857307434082,0.7185935974121094,0.08177757263183594,20.804882049560547,20.886659622192383,22.69148826599121,91.34912490844727
1759159739.8841736,1759159739.970559,150.8197784423828,0.370025634765625,0.0743865966796875,21.923542022705078,21.997928619384766,23.181915283203125,95.83163261413574
1759159740.039553,1759159740.1487978,140.54298400878906,0.28061866760253906,0.061511993408203125,20.455360412597656,20.51687240600586,21.237611770629883,74.05281066894531
1759159740.1855657,1759159740.2902505,155.16138076782227,0.7596015930175781,0.06508827209472656,22.953271865844727,23.018360137939453,24.13034439086914,74.4483470916748
1759159740.3409064,1759159740.4347742,122.98583984375,0.2720355987548828,0.06508827209472656,20.618915557861328,20.684003829956055,21.398067474365234,71.77472114562988
1759159740.4685254,1759159740.5552397,135.1449489593506,0.1590251922607422,0.059604644775390625,20.620346069335938,20.679950714111328,21.21758460998535,69.80395317077637
1759159740.6038458,1759159740.6709495,147.843599319458,0.06341934204101562,0.08511543273925781,26.571273803710938,26.656389236450195,27.042388916015625,74.51963424682617
1759159740.7527146,1759159740.8474894,165.8344268798828,0.3457069396972656,0.07915496826171875,22.14336395263672,22.222518920898438,23.03004264831543,74.61166381835938
1759159740.9187891,1759159740.9952617,151.47686004638672,1.5628337860107422,0.08034706115722656,21.148681640625,21.229028701782227,23.1170654296875,95.69215774536133
1759159741.074556,1759159741.1391644,164.4890308380127,1.3782978057861328,0.087738037109375,24.477481842041016,24.56521987915039,26.436805725097656,120.50318717956543
1759159741.2391968,1759159741.3171294,172.3184585571289,0.37980079650878906,0.09131431579589844,22.68218994140625,22.77350425720215,24.089574813842773,97.27597236633301
1759159741.4172962,1759159741.4639409,139.01329040527344,0.072479248046875,0.080108642578125,24.89018440246582,24.970293045043945,25.36797523498535,70.39117813110352
1759159741.5616415,1759159741.6122522,162.7330780029297,0.4074573516845703,0.087738037109375,22.75562286376953,22.843360900878906,23.65565299987793,71.81143760681152
1759159741.725562,1759159741.7581003,126.11937522888184,0.20813941955566406,0.08273124694824219,23.031234741210938,23.11396598815918,23.678302764892578,49.399375915527344
1759159741.8519917,1759159741.903427,145.0490951538086,0.19240379333496094,0.08988380432128906,25.05040168762207,25.14028549194336,25.551795959472656,75.17266273498535
1759159741.9995966,1759159742.0523028,147.050142288208,0.0762939453125,0.09512901306152344,24.571657180786133,24.666786193847656,25.137662887573242,71.35534286499023
1759159742.1511765,1759159742.2006118,142.53878593444824,0.15115737915039062,0.08630752563476562,22.924184799194336,23.0104923248291,23.62227439880371,71.68769836425781
1759159742.293942,1759159742.3456988,140.92516899108887,0.247955322265625,0.08106231689453125,23.3304500579834,23.41151237487793,24.037599563598633,73.98486137390137
1759159742.435091,1759159742.4895928,124.48406219482422,0.27680397033691406,0.08463859558105469,23.417234420776367,23.501873016357422,25.33721923828125,75.45924186706543
1759159742.5597215,1759159742.6335962,148.15425872802734,0.5147457122802734,0.09179115295410156,23.49376678466797,23.58555793762207,25.21491050720215,75.99759101867676
1759159742.7087386,1759159742.7829392,146.57354354858398,0.5166530609130859,0.10657310485839844,23.14019203186035,23.24676513671875,25.565385818481445,96.34709358215332
1759159742.8562508,1759159742.9285548,142.42291450500488,0.1976490020751953,0.06699562072753906,22.605180740356445,22.672176361083984,23.270130157470703,92.1926498413086
1759159743.000565,1759159743.0688481,144.15407180786133,1.3782978057861328,0.07200241088867188,23.228883743286133,23.300886154174805,26.475191116333008,94.93684768676758
1759159743.1449423,1759159743.2141242,142.68994331359863,0.14209747314453125,0.07319450378417969,24.95884895324707,25.03204345703125,25.634765625,74.13029670715332
1759159743.2916923,1759159743.3597095,141.48807525634766,0.6444454193115234,0.07510185241699219,23.57649803161621,23.651599884033203,24.86562728881836,94.65837478637695
1759159743.437608,1759159743.5009882,153.89060974121094,0.15425682067871094,0.06413459777832031,23.913145065307617,23.977279663085938,24.389982223510742,71.04945182800293
1759159743.592567,1759159743.6439426,140.42997360229492,0.07271766662597656,0.0629425048828125,24.07526969909668,24.138212203979492,24.47223663330078,68.13645362854004
1759159743.733166,1759159743.7828655,97.43165969848633,0.7987022399902344,0.06532669067382812,20.86472511291504,20.930051803588867,23.331642150878906,72.02839851379395
1759159743.8307757,1759159743.9218903,141.79158210754395,0.6909370422363281,0.06365776062011719,21.124839782714844,21.18849754333496,22.333145141601562,73.28367233276367
1759159743.9755785,1759159744.0701776,150.45714378356934,0.4162788391113281,0.08034706115722656,23.88739585876465,23.967742919921875,25.325298309326172,98.20842742919922
1759159744.1266103,1759159744.2191632,145.4784870147705,0.3809928894042969,0.09250640869140625,23.168563842773438,23.261070251464844,24.633407592773438,99.43175315856934
1759159744.279477,1759159744.3873405,139.44411277770996,0.24247169494628906,0.07343292236328125,22.404193878173828,22.47762680053711,23.025989532470703,73.68683815002441
1759159744.4191194,1759159744.5323765,139.85252380371094,0.23412704467773438,0.07510185241699219,20.81751823425293,20.892620086669922,21.52872085571289,53.32350730895996
1759159744.5636232,1759159744.6788177,163.06018829345703,0.3876686096191406,0.08296966552734375,21.030664443969727,21.11363410949707,21.925926208496094,54.25453186035156
1759159744.7268384,1759159744.8207965,144.93083953857422,0.7312297821044922,0.08320808410644531,22.68528938293457,22.768497467041016,24.003267288208008,95.54266929626465
1759159744.8765986,1759159744.9461436,162.97674179077148,0.2315044403076172,0.09322166442871094,23.015975952148438,23.10919761657715,24.003028869628906,95.94941139221191
1759159745.039799,1759159745.0937254,104.60519790649414,0.9832382202148438,0.08869171142578125,22.014856338500977,22.103548049926758,23.91791343688965,76.3554573059082
1759159745.1446493,1759159745.2422624,149.41167831420898,0.5123615264892578,0.08559226989746094,21.326303482055664,21.411895751953125,22.66693115234375,77.18873023986816
1759159745.2985888,1759159745.3902879,143.34344863891602,0.4696846008300781,0.09584426879882812,23.425817489624023,23.52166175842285,25.88677406311035,76.03287696838379
1759159745.4446113,1759159745.537785,166.46981239318848,2.2728443145751953,0.08440017700195312,21.0723876953125,21.156787872314453,23.813486099243164,96.05288505554199
1759159745.6140897,1759159745.683638,119.30274963378906,0.4756450653076172,0.07605552673339844,21.836042404174805,21.912097930908203,23.998498916625977,72.71146774291992
1759159745.7335956,1759159745.8289857,127.47883796691895,0.3669261932373047,0.07653236389160156,21.13628387451172,21.21281623840332,22.295236587524414,74.61738586425781
1759159745.86658,1759159745.9782288,164.37649726867676,0.6387233734130859,0.08511543273925781,22.80402183532715,22.889137268066406,23.9107608795166,77.53252983093262
1759159746.03504,1759159746.124119,161.5586280822754,0.2124309539794922,0.07915496826171875,25.33555030822754,25.414705276489258,27.19902992248535,74.90015029907227
1759159746.196735,1759159746.2663398,120.24974822998047,0.41174888610839844,0.06747245788574219,21.58975601196289,21.657228469848633,24.23882484436035,92.82922744750977
1759159746.3171823,1759159746.4127014,150.1178741455078,0.43010711669921875,0.08225440979003906,20.769357681274414,20.851612091064453,21.88706398010254,95.27277946472168
1759159746.4725964,1759159746.5363991,154.68740463256836,0.36716461181640625,0.08034706115722656,21.955251693725586,22.035598754882812,22.87125587463379,94.35367584228516
1759159746.6275218,1759159746.6825223,129.1801929473877,0.2574920654296875,0.08153915405273438,21.300315856933594,21.381855010986328,22.12238311767578,72.8752613067627
1759159746.7615757,1759159746.8299546,150.37226676940918,0.20074844360351562,0.0782012939453125,20.900726318359375,20.978927612304688,21.664142608642578,91.85338020324707
1759159746.916542,1759159747.0147216,130.44261932373047,0.45561790466308594,0.062465667724609375,20.470142364501953,20.532608032226562,21.81386947631836,90.3475284576416
1759159747.0535743,1759159747.1349196,132.30490684509277,0.4787445068359375,0.06866455078125,20.988941192626953,21.057605743408203,22.310972213745117,92.92268753051758
1759159747.1865895,1759159747.2770002,143.04542541503906,1.363515853881836,0.06270408630371094,20.914077758789062,20.976781845092773,22.79353141784668,92.1773910522461
1759159747.3317425,1759159747.4404228,135.2534294128418,0.2651214599609375,0.05817413330078125,20.45750617980957,20.51568031311035,21.23117446899414,69.4429874420166
1759159747.4677236,1759159747.5373962,144.06847953796387,0.061511993408203125,0.08320808410644531,27.129650115966797,27.212858200073242,27.67348289489746,74.9521255493164
1759159747.6120136,1759159747.684058,125.27132034301758,0.4966259002685547,0.08106231689453125,22.98116683959961,23.06222915649414,25.562286376953125,96.29631042480469
1759159747.737541,1759159747.834875,151.18789672851562,1.811981201171875,0.08678436279296875,21.166324615478516,21.253108978271484,23.69546890258789,96.68922424316406
1759159747.8906684,1759159747.9803164,159.9438190460205,0.7672309875488281,0.07367134094238281,21.136999130249023,21.210670471191406,23.88596534729004,93.2621955871582
1759159748.0507517,1759159748.1248589,145.7347869873047,1.7325878143310547,0.091552734375,21.166324615478516,21.257877349853516,23.41175079345703,74.19276237487793
1759159748.196639,1759159748.273126,129.3184757232666,0.24747848510742188,0.07891654968261719,22.591590881347656,22.670507431030273,23.258447647094727,97.1229076385498
1759159748.3345826,1759159748.4440794,162.0781421661377,1.7535686492919922,0.09679794311523438,21.542787551879883,21.639585494995117,23.80061149597168,76.45511627197266
1759159748.5010808,1759159748.5886064,141.94560050964355,0.5023479461669922,0.08845329284667969,26.067018508911133,26.155471801757812,28.484821319580078,75.76179504394531
1759159748.6515772,1759159748.7668777,162.81604766845703,0.2865791320800781,0.08320808410644531,21.32105827331543,21.404266357421875,22.16315269470215,54.965972900390625
1759159748.8245845,1759159748.915366,140.4261589050293,0.25844573974609375,0.08273124694824219,21.314144134521484,21.396875381469727,22.26424217224121,73.66561889648438
1759159748.9699013,1759159749.0356796,138.2608413696289,0.06437301635742188,0.08487701416015625,26.067733764648438,26.152610778808594,26.595592498779297,73.61602783203125
1759159749.108383,1759159749.1798587,123.25048446655273,0.9474754333496094,0.07796287536621094,21.117687225341797,21.195650100708008,23.998498916625977,93.99247169494629
1759159749.2318072,1759159749.3267667,125.17595291137695,0.400543212890625,0.08082389831542969,21.25263214111328,21.33345603942871,22.374868392944336,73.61602783203125
1759159749.3627102,1759159749.4499106,145.22385597229004,0.24390220642089844,0.08130073547363281,21.50893211364746,21.590232849121094,22.4456787109375,74.57280158996582
1759159749.508543,1759159749.5997772,149.98221397399902,0.2684593200683594,0.08606910705566406,21.48151397705078,21.567583084106445,22.433042526245117,74.85175132751465
1759159749.6626043,1759159749.7667277,154.0212631225586,0.3018379211425781,0.06699562072753906,20.7979679107666,20.86496353149414,21.64483070373535,71.42353057861328
1759159749.8168492,1759159749.9087439,145.51615715026855,0.4887580871582031,0.072479248046875,20.890474319458008,20.962953567504883,22.577285766601562,94.25091743469238
1759159749.9675932,1759159750.0538476,164.35980796813965,1.5277862548828125,0.07390975952148438,21.381139755249023,21.455049514770508,23.538827896118164,95.52502632141113
1759159750.141641,1759159750.2263818,156.4493179321289,0.63323974609375,0.07224082946777344,20.717144012451172,20.789384841918945,22.03845977783203,94.91658210754395
1759159750.3029025,1759159750.390513,139.6191120147705,0.2770423889160156,0.06318092346191406,22.833824157714844,22.897005081176758,23.6971378326416,94.68865394592285
1759159750.446826,1759159750.5105612,138.66853713989258,0.15616416931152344,0.0667572021484375,24.387598037719727,24.454355239868164,25.990724563598633,92.59319305419922
1759159750.590081,1759159750.6765363,134.57751274108887,0.1595020294189453,0.05936622619628906,20.585298538208008,20.644664764404297,21.174907684326172,70.01423835754395
1759159750.7291603,1759159750.8186462,162.9774570465088,0.2219676971435547,0.0858306884765625,24.940967559814453,25.026798248291016,26.89671516418457,77.88395881652832
1759159750.893057,1759159750.965258,146.43073081970215,0.08654594421386719,0.07510185241699219,26.619672775268555,26.694774627685547,27.280092239379883,95.3819751739502
1759159751.041663,1759159751.1133413,142.8675651550293,0.06222724914550781,0.08416175842285156,25.693416595458984,25.777578353881836,26.13997459411621,72.2799301147461
1759159751.1846666,1759159751.2552624,142.86494255065918,1.1086463928222656,0.07271766662597656,22.593021392822266,22.665739059448242,24.34682846069336,94.10357475280762
1759159751.3311687,1759159751.400314,146.1355686187744,0.33855438232421875,0.08130073547363281,24.401426315307617,24.48272705078125,26.648759841918945,115.83137512207031
1759159751.4866185,1759159751.5729938,143.31674575805664,0.225067138671875,0.07700920104980469,21.248340606689453,21.325349807739258,22.07350730895996,72.90267944335938
1759159751.638571,1759159751.7435844,136.41786575317383,0.553131103515625,0.08845329284667969,22.159337997436523,22.247791290283203,23.647069931030273,76.17068290710449
1759159751.7796226,1759159751.8918946,162.60313987731934,0.9238719940185547,0.10180473327636719,21.49820327758789,21.600008010864258,24.494409561157227,76.07340812683105
1759159751.9424376,1759159752.0399196,126.2826919555664,0.6222724914550781,0.0934600830078125,22.24445343017578,22.337913513183594,23.367643356323242,75.86264610290527
1759159752.0726447,1759159752.15949,143.67032051086426,0.080108642578125,0.09012222290039062,28.418540954589844,28.508663177490234,29.027223587036133,76.11799240112305
1759159752.2196221,1759159752.3072891,140.02633094787598,0.07700920104980469,0.08702278137207031,27.901172637939453,27.988195419311523,28.47433090209961,75.4551887512207
1759159752.3636525,1759159752.4513316,139.89853858947754,0.07557868957519531,0.08130073547363281,28.19514274597168,28.276443481445312,28.67293357849121,73.9591121673584
1759159752.5066283,1759159752.5998902,165.62342643737793,0.17905235290527344,0.08106231689453125,26.362895965576172,26.443958282470703,26.942729949951172,74.78880882263184
1759159752.6725125,1759159752.7457502,125.33307075500488,0.49495697021484375,0.0896453857421875,21.87347412109375,21.963119506835938,23.462772369384766,95.40629386901855
1759159752.7996063,1759159752.8924847,122.94673919677734,0.7073879241943359,0.08296966552734375,21.097660064697266,21.18062973022461,22.959470748901367,92.58675575256348
1759159752.9277303,1759159753.0353878,161.23580932617188,0.4329681396484375,0.06389617919921875,20.712614059448242,20.77651023864746,22.098302841186523,111.09685897827148
1759159753.093448,1759159753.1564004,155.3046703338623,1.596212387084961,0.07295608520507812,20.816326141357422,20.8892822265625,22.87888526916504,93.14417839050293
1759159753.248964,1759159753.302949,104.98738288879395,0.33402442932128906,0.10323524475097656,21.303892135620117,21.407127380371094,22.205114364624023,74.5244026184082
1759159753.3587368,1759159753.4496233,161.89146041870117,0.29730796813964844,0.07343292236328125,22.155046463012695,22.228479385375977,23.020505905151367,73.78196716308594
1759159753.521355,1759159753.5900893,160.80617904663086,0.19049644470214844,0.06437301635742188,22.640228271484375,22.704601287841797,24.461030960083008,95.15666961669922
1759159753.6823432,1759159753.7329087,97.69535064697266,0.42176246643066406,0.06413459777832031,21.140098571777344,21.204233169555664,23.46634864807129,72.98421859741211
1759159753.7801642,1759159753.8728447,142.44747161865234,0.4799365997314453,0.06437301635742188,21.924257278442383,21.988630294799805,22.74346351623535,72.4494457244873
1759159753.9268856,1759159754.0106478,138.78750801086426,1.1928081512451172,0.06890296936035156,24.912595748901367,24.98149871826172,28.059720993041992,75.25992393493652
1759159754.069574,1759159754.1569836,145.42770385742188,0.07677078247070312,0.08535385131835938,27.667760848999023,27.753114700317383,28.23472023010254,74.90777969360352
1759159754.2195504,1759159754.3337371,140.4561996459961,0.28634071350097656,0.08821487426757812,21.38519287109375,21.473407745361328,22.228717803955078,55.98044395446777
1759159754.3666763,1759159754.478295,139.5587921142578,0.19359588623046875,0.07033348083496094,20.546674728393555,20.617008209228516,21.158933639526367,51.99027061462402
1759159754.5096262,1759159754.6209176,137.6798152923584,0.2155303955078125,0.07462501525878906,20.849227905273438,20.923852920532227,21.521568298339844,53.03168296813965
1759159754.651604,1759159754.766203,141.4511203765869,0.25177001953125,0.08940696716308594,21.266698837280273,21.35610580444336,22.03536033630371,53.874969482421875
1759159754.7972121,1759159754.8831239,138.31400871276855,0.07224082946777344,0.08034706115722656,27.967453002929688,28.047800064086914,28.50508689880371,74.16343688964844
1759159754.9357405,1759159755.0266926,144.2279815673828,1.2707710266113281,0.08606910705566406,21.18515968322754,21.271228790283203,24.596691131591797,114.48502540588379
1759159755.080159,1759159755.1749575,149.49512481689453,0.7557868957519531,0.08106231689453125,21.658897399902344,21.739959716796875,23.514509201049805,94.85697746276855
1759159755.233636,1759159755.3257728,144.01555061340332,0.9918212890625,0.08869171142578125,21.193981170654297,21.282672882080078,22.92656898498535,95.57056427001953
1759159755.3796158,1759159755.4728498,124.37033653259277,0.7264614105224609,0.08630752563476562,21.288633346557617,21.374940872192383,23.222684860229492,93.93596649169922
1759159755.514575,1759159755.5991871,144.9577808380127,0.4096031188964844,0.0820159912109375,21.377086639404297,21.459102630615234,22.720813751220703,93.83893013000488
1759159755.6635897,1759159755.7472875,147.3381519317627,0.4467964172363281,0.0858306884765625,21.094322204589844,21.180152893066406,22.54629135131836,93.59431266784668
1759159755.8137317,1759159755.9156802,140.1844024658203,0.6966590881347656,0.08273124694824219,21.946430206298828,22.02916145324707,23.798465728759766,93.60694885253906
1759159755.9577184,1759159756.0415902,146.21639251708984,0.4477500915527344,0.09036064147949219,22.05491065979004,22.14527130126953,23.575782775878906,98.84810447692871
1759159756.1085763,1759159756.2159398,163.4659767150879,0.4010200500488281,0.07963180541992188,21.892786026000977,21.9724178314209,23.046493530273438,97.37944602966309
1759159756.2766287,1759159756.3663929,169.36779022216797,1.3074874877929688,0.12540817260742188,23.90146255493164,24.026870727539062,27.716875076293945,102.87165641784668
1759159756.4531784,1759159756.5470188,166.1703586578369,0.9403228759765625,0.09012222290039062,21.299123764038086,21.389245986938477,24.24454689025879,97.9909896850586
1759159756.6195605,1759159756.6963034,131.07633590698242,0.9076595306396484,0.09012222290039062,22.581100463867188,22.671222686767578,24.133682250976562,97.08952903747559
1759159756.7539995,1759159756.8442411,140.08474349975586,0.30040740966796875,0.08678436279296875,22.691011428833008,22.777795791625977,23.87261390686035,74.1572380065918
1759159756.903567,1759159756.9910452,136.11173629760742,0.17762184143066406,0.07128715515136719,20.961999893188477,21.033287048339844,21.618366241455078,72.51834869384766
1759159757.0435793,1759159757.1090677,137.52985000610352,0.058650970458984375,0.07462501525878906,26.042461395263672,26.11708641052246,26.51691436767578,72.25465774536133
1759159757.1812508,1759159757.252529,134.30094718933105,0.4756450653076172,0.08392333984375,25.071382522583008,25.155305862426758,26.74269676208496,96.83585166931152
1759159757.3157835,1759159757.4138088,133.16845893859863,0.5347728729248047,0.07295608520507812,21.38209342956543,21.455049514770508,22.976160049438477,94.25997734069824
1759159757.4575832,1759159757.539689,141.33882522583008,0.3833770751953125,0.08058547973632812,20.940542221069336,21.021127700805664,22.25780487060547,95.70956230163574
1759159757.5996943,1759159757.7060258,159.2237949371338,0.2562999725341797,0.060558319091796875,21.2252140045166,21.2857723236084,21.922588348388672,92.86141395568848
1759159757.7635531,1759159757.849594,154.47711944580078,0.46372413635253906,0.06079673767089844,22.3538875579834,22.414684295654297,23.243427276611328,93.61028671264648
1759159757.9268556,1759159757.992442,141.47233963012695,0.1761913299560547,0.06127357482910156,20.821094512939453,20.882368087768555,21.438121795654297,89.73574638366699
1759159758.0764952,1759159758.1756623,155.71975708007812,0.4534721374511719,0.06198883056640625,22.294282913208008,22.356271743774414,24.02043342590332,114.16459083557129
1759159758.239603,1759159758.303727,164.1368865966797,1.7237663269042969,0.09036064147949219,21.156787872314453,21.247148513793945,23.446083068847656,117.43545532226562
1759159758.408946,1759159758.4546728,138.55862617492676,0.14019012451171875,0.10204315185546875,22.60589599609375,22.70793914794922,23.77915382385254,95.11232376098633
1759159758.5496435,1759159758.5994368,139.87183570861816,0.6880760192871094,0.07581710815429688,23.747920989990234,23.82373809814453,24.7952938079834,69.1533088684082
1759159758.6897414,1759159758.7408526,99.6098518371582,0.9341239929199219,0.07891654968261719,20.753860473632812,20.83277702331543,22.85456657409668,72.68643379211426
1759159758.7895648,1759159758.8853543,124.03464317321777,0.4787445068359375,0.08416175842285156,21.19278907775879,21.27695083618164,22.58443832397461,74.52583312988281
1759159758.9199722,1759159759.0313158,138.35954666137695,0.42366981506347656,0.080108642578125,21.167993545532227,21.24810218811035,22.368431091308594,73.0443000793457
1759159759.0637393,1759159759.1565053,163.15889358520508,0.27370452880859375,0.08416175842285156,21.28291130065918,21.36707305908203,22.27020263671875,74.56231117248535
1759159759.233973,1759159759.3257568,143.04614067077637,0.5366802215576172,0.08153915405273438,23.06842803955078,23.149967193603516,24.243831634521484,96.57478332519531
1759159759.3875587,1759159759.4963255,141.40725135803223,0.4470348358154297,0.08416175842285156,21.2862491607666,21.370410919189453,22.49312400817871,73.56119155883789
1759159759.5336235,1759159759.6214533,142.10891723632812,0.26607513427734375,0.11849403381347656,21.279573440551758,21.398067474365234,22.276639938354492,73.69351387023926
1759159759.6758797,1759159759.7683074,150.7558822631836,0.23746490478515625,0.08249282836914062,21.141529083251953,21.224021911621094,22.017717361450195,73.56882095336914
1759159759.8275576,1759159759.9129093,138.61584663391113,0.1952648162841797,0.0743865966796875,20.952224731445312,21.026611328125,21.651029586791992,72.33548164367676
1759159759.973602,1759159760.058967,144.3321704864502,0.1976490020751953,0.07843971252441406,21.063804626464844,21.142244338989258,21.83365821838379,73.61912727355957
1759159760.125575,1759159760.2072518,134.45639610290527,0.27489662170410156,0.0896453857421875,21.509647369384766,21.599292755126953,22.495746612548828,74.05638694763184
1759159760.2686157,1759159760.354122,136.31319999694824,0.21004676818847656,0.08320808410644531,21.878719329833984,21.96192741394043,22.813796997070312,74.52917098999023
1759159760.4135542,1759159760.519885,154.46877479553223,0.2872943878173828,0.06079673767089844,22.275447845458984,22.336244583129883,22.91703224182129,73.05741310119629
1759159760.5691195,1759159760.6628547,148.93031120300293,1.4882087707519531,0.08535385131835938,23.154258728027344,23.239612579345703,25.469303131103516,75.36101341247559
1759159760.7182472,1759159760.8084896,163.34986686706543,0.3638267517089844,0.08130073547363281,23.906469345092773,23.987770080566406,25.032997131347656,96.41194343566895
1759159760.8826137,1759159760.9548068,142.1523094177246,0.3294944763183594,0.06413459777832031,20.755290985107422,20.819425582885742,21.867036819458008,92.16952323913574
1759159761.0295694,1759159761.0970418,136.1715793609619,1.6477108001708984,0.06556510925292969,21.454334259033203,21.519899368286133,23.867368698120117,73.6539363861084
1759159761.1658788,1759159761.2394543,104.0194034576416,1.4421939849853516,0.07319450378417969,21.828413009643555,21.901607513427734,23.642301559448242,74.03039932250977
1759159761.2700636,1759159761.3571608,155.82966804504395,0.1704692840576172,0.064849853515625,25.2382755279541,25.303125381469727,25.742530822753906,71.53034210205078
1759159761.4267037,1759159761.4979982,149.9805450439453,0.06103515625,0.08368492126464844,26.297330856323242,26.38101577758789,26.81422233581543,73.63057136535645
1759159761.5774207,1759159761.64448,143.64886283874512,0.06532669067382812,0.080108642578125,26.198148727416992,26.278257369995117,26.73625946044922,74.21135902404785
1759159761.721221,1759159761.7921193,144.17243003845215,0.0667572021484375,0.09655952453613281,27.21095085144043,27.307510375976562,27.790069580078125,74.04875755310059
1759159761.8685799,1759159761.937251,139.13822174072266,0.05984306335449219,0.07033348083496094,25.841951370239258,25.91228485107422,26.252269744873047,70.90425491333008
1759159762.007908,1759159762.078699,121.08898162841797,0.8983612060546875,0.07796287536621094,20.843029022216797,20.920991897583008,23.821592330932617,93.47963333129883
1759159762.129195,1759159762.2266667,152.85420417785645,0.46443939208984375,0.08440017700195312,21.05116844177246,21.135568618774414,22.237539291381836,96.89593315124512
1759159762.285669,1759159762.3504555,151.2777805328369,0.24700164794921875,0.07963180541992188,21.37589454650879,21.45552635192871,22.275209426879883,94.01512145996094
1759159762.4406183,1759159762.5204313,163.29669952392578,0.40078163146972656,0.08320808410644531,21.157264709472656,21.2404727935791,22.373437881469727,116.26648902893066
1759159762.6085649,1759159762.69248,162.85228729248047,0.362396240234375,0.08225440979003906,21.6219425201416,21.70419692993164,22.867918014526367,117.36774444580078
1759159762.7805903,1759159762.8177752,138.4117603302002,0.2300739288330078,0.08630752563476562,21.470308303833008,21.556615829467773,22.6290225982666,115.50068855285645
1759159762.9276154,1759159762.9879434,157.35197067260742,1.7273426055908203,0.09107589721679688,21.03734016418457,21.128416061401367,23.347854614257812,115.78059196472168
1759159763.0945573,1759159763.1592321,161.37933731079102,0.19407272338867188,0.08535385131835938,22.482633590698242,22.5679874420166,23.079872131347656,114.73274230957031
1759159763.2663286,1759159763.330746,161.32116317749023,0.2281665802001953,0.07963180541992188,21.263599395751953,21.343231201171875,22.112607955932617,93.40643882751465
1759159763.4278803,1759159763.4767754,143.7692642211914,0.347137451171875,0.16069412231445312,21.999597549438477,22.16029167175293,23.545265197753906,94.71797943115234
1759159763.5719213,1759159763.6247578,103.09004783630371,0.4482269287109375,0.15807151794433594,21.22807502746582,21.386146545410156,22.852182388305664,75.10709762573242
1759159763.675154,1759159763.7639146,158.8001251220703,0.20051002502441406,0.06794929504394531,24.6121883392334,24.680137634277344,26.426076889038086,72.23129272460938
1759159763.8341482,1759159763.9040954,120.37062644958496,0.4611015319824219,0.06961822509765625,21.429777145385742,21.4993953704834,22.809267044067383,91.60137176513672
1759159763.9547195,1759159764.0467784,124.86672401428223,0.5795955657958984,0.06937980651855469,21.51322364807129,21.582603454589844,23.31376075744629,93.2471752166748
1759159764.0847268,1759159764.1970243,166.2454605102539,0.31828880310058594,0.07653236389160156,21.082639694213867,21.15917205810547,22.03202247619629,94.16794776916504
1759159764.2555623,1759159764.3372111,132.69615173339844,0.27298927307128906,0.05888938903808594,20.51377296447754,20.572662353515625,21.43120765686035,92.12493896484375
1759159764.397588,1759159764.5020044,153.33318710327148,0.2741813659667969,0.06079673767089844,20.684242248535156,20.745038986206055,21.466493606567383,92.68498420715332
1759159764.5565386,1759159764.6436777,135.48541069030762,1.3816356658935547,0.06318092346191406,20.512104034423828,20.575284957885742,22.388935089111328,91.06993675231934
1759159764.7016022,1759159764.788726,140.45143127441406,0.19621849060058594,0.07176399230957031,21.036148071289062,21.107912063598633,21.846294403076172,73.00710678100586
1759159764.85058,1759159764.9564295,142.36783981323242,0.3578662872314453,0.07557868957519531,21.210193634033203,21.2857723236084,22.391080856323242,73.58241081237793
1759159764.9935572,1759159765.0828621,142.8515911102295,0.2193450927734375,0.08320808410644531,21.17300033569336,21.256208419799805,21.909475326538086,73.27103614807129
1759159765.1425788,1759159765.2475934,136.43479347229004,0.32591819763183594,0.06747245788574219,20.691633224487305,20.759105682373047,21.708965301513672,72.23629951477051
1759159765.2835882,1759159765.3916934,157.99355506896973,0.8313655853271484,0.07867813110351562,21.093130111694336,21.17180824279785,23.890972137451172,75.26755332946777
1759159765.4418097,1759159765.5369267,145.93076705932617,0.8547306060791016,0.07724761962890625,22.56155014038086,22.638797760009766,23.90265464782715,95.58916091918945
1759159765.5879316,1759159765.683895,128.13138961791992,0.4413127899169922,0.08249282836914062,20.97940444946289,21.06189727783203,22.37725257873535,74.39470291137695
1759159765.720575,1759159765.8058913,141.70360565185547,1.3911724090576172,0.09632110595703125,23.05316925048828,23.149490356445312,25.476694107055664,74.32150840759277
1759159765.862475,1759159765.9521766,143.59378814697266,2.1238327026367188,0.08177757263183594,21.097660064697266,21.1794376373291,23.891687393188477,118.50094795227051
1759159766.0106199,1759159766.0754037,147.11999893188477,0.07176399230957031,0.08821487426757812,27.109622955322266,27.197837829589844,27.6792049407959,74.13911819458008
1759159766.1600642,1759159766.2726989,138.97275924682617,0.4036426544189453,0.08273124694824219,21.186113357543945,21.268844604492188,22.40133285522461,74.35369491577148
1759159766.3116026,1759159766.4186018,168.32280158996582,0.36454200744628906,0.07963180541992188,21.045684814453125,21.125316619873047,22.07183837890625,93.92070770263672
1759159766.48011,1759159766.564584,132.9662799835205,0.3955364227294922,0.08034706115722656,21.22354507446289,21.303892135620117,22.598981857299805,95.04985809326172
1759159766.628578,1759159766.7111347,144.98639106750488,0.4451274871826172,0.09036064147949219,21.930694580078125,22.021055221557617,23.405075073242188,94.24924850463867
1759159766.7786338,1759159766.8803322,132.40838050842285,0.7288455963134766,0.08392333984375,21.300792694091797,21.384716033935547,23.257732391357422,94.10333633422852
1759159766.919617,1759159767.0027738,155.06553649902344,1.417398452758789,0.06580352783203125,20.681381225585938,20.74718475341797,22.525548934936523,91.21990203857422
1759159767.0748694,1759159767.143355,161.21840476989746,0.22530555725097656,0.07224082946777344,23.025035858154297,23.09727668762207,24.912118911743164,93.80984306335449
1759159767.2362394,1759159767.2877307,100.74734687805176,0.4780292510986328,0.07534027099609375,21.161317825317383,21.236658096313477,23.6358642578125,73.97103309631348
1759159767.337167,1759159767.4346352,147.17388153076172,0.7722377777099609,0.09179115295410156,22.678613662719727,22.770404815673828,23.967981338500977,75.60563087463379
1759159767.4856424,1759159767.5821898,148.71454238891602,0.3807544708251953,0.08106231689453125,22.67909049987793,22.76015281677246,24.101972579956055,73.7771987915039
1759159767.6375911,1759159767.7263117,140.43235778808594,1.4171600341796875,0.07343292236328125,20.69854736328125,20.77198028564453,22.764205932617188,94.58160400390625
1759159767.7835808,1759159767.8883965,136.43503189086914,1.4791488647460938,0.06008148193359375,22.414445877075195,22.47452735900879,24.338960647583008,73.21858406066895
1759159767.9245691,1759159768.0338316,135.35428047180176,0.15282630920410156,0.05984306335449219,20.669221878051758,20.72906494140625,21.121740341186523,51.4523983001709
1759159768.0600789,1759159768.1490285,158.53166580200195,0.17070770263671875,0.06389617919921875,25.573015213012695,25.636911392211914,26.096582412719727,71.81429862976074
1759159768.218796,1759159768.2882962,120.75376510620117,0.766754150390625,0.06341934204101562,21.915674209594727,21.979093551635742,23.741722106933594,92.44918823242188
1759159768.3397198,1759159768.4347265,128.26871871948242,0.6961822509765625,0.08463859558105469,21.1336612701416,21.218299865722656,22.977352142333984,93.37687492370605
1759159768.47376,1759159768.5602672,160.8865261077881,0.7922649383544922,0.08940696716308594,21.466732025146484,21.55613899230957,23.46348762512207,96.6031551361084
1759159768.6348622,1759159768.7065158,119.6284294128418,0.7262229919433594,0.07009506225585938,20.697593688964844,20.767688751220703,21.819353103637695,71.58780097961426
1759159768.754687,1759159768.8480995,146.2855339050293,0.3917217254638672,0.07462501525878906,20.866870880126953,20.941495895385742,21.96645736694336,94.32220458984375
1759159768.9055874,1759159768.9931962,140.3343677520752,1.7902851104736328,0.08296966552734375,21.409273147583008,21.49224281311035,24.05691146850586,95.70932388305664
1759159769.0545778,1759159769.1626277,181.0905933380127,0.8449554443359375,0.080108642578125,21.036863327026367,21.116971969604492,23.672103881835938,75.24394989013672
1759159769.2401154,1759159769.310877,121.95634841918945,1.5375614166259766,0.09608268737792969,21.242618560791016,21.338701248168945,23.883819580078125,75.00004768371582
1759159769.3656209,1759159769.454988,145.65396308898926,0.2319812774658203,0.08440017700195312,26.129961013793945,26.2143611907959,28.304100036621094,98.90961647033691
1759159769.5155764,1759159769.62977,166.4276123046875,1.6345977783203125,0.09512901306152344,22.041797637939453,22.136926651000977,24.28746223449707,78.01532745361328
1759159769.6860557,1759159769.775725,146.21496200561523,0.18405914306640625,0.087738037109375,26.11398696899414,26.201725006103516,27.12392807006836,76.19023323059082
1759159769.8324263,1759159769.9228673,143.59784126281738,0.17213821411132812,0.08559226989746094,26.607036590576172,26.692628860473633,27.35161781311035,74.84984397888184
1759159769.9796197,1759159770.0681236,148.25892448425293,0.3337860107421875,0.10466575622558594,28.054475784301758,28.159141540527344,28.928518295288086,99.53594207763672
1759159770.130593,1759159770.2223897,149.06597137451172,1.9216537475585938,0.07915496826171875,21.088361740112305,21.167516708374023,23.767471313476562,94.4514274597168
1759159770.2799242,1759159770.3729982,123.35824966430664,0.518798828125,0.08654594421386719,21.613359451293945,21.699905395507812,23.455142974853516,74.71752166748047
1759159770.4087195,1759159770.5183675,134.25850868225098,0.30159950256347656,0.06794929504394531,20.580768585205078,20.648717880249023,21.436452865600586,70.97697257995605
1759159770.546556,1759159770.6137245,157.43541717529297,0.15091896057128906,0.06651878356933594,24.105310440063477,24.171829223632812,24.601459503173828,71.07686996459961
1759159770.7051587,1759159770.756428,142.59648323059082,0.087738037109375,0.08153915405273438,25.082111358642578,25.163650512695312,25.618314743041992,70.53256034851074
1759159770.8482268,1759159770.9021468,127.44736671447754,0.5383491516113281,0.08416175842285156,23.29850196838379,23.38266372680664,25.73561668395996,78.63569259643555
1759159770.9759047,1759159771.0448532,139.7264003753662,0.3364086151123047,0.064849853515625,23.867368698120117,23.932218551635742,25.681495666503906,74.0513801574707
1759159771.1157568,1759159771.1984508,173.13313484191895,0.06651878356933594,0.06699562072753906,32.56368637084961,32.63068199157715,32.96256065368652,93.93978118896484
1759159771.289019,1759159771.3592117,119.21381950378418,0.86212158203125,0.06508827209472656,20.50161361694336,20.566701889038086,23.537397384643555,92.5450325012207
1759159771.408413,1759159771.5009403,165.4500961303711,0.3707408905029297,0.07700920104980469,22.619247436523438,22.696256637573242,23.491859436035156,93.60647201538086
1759159771.5791566,1759159771.650806,166.08452796936035,0.23245811462402344,0.08726119995117188,23.78058433532715,23.86784553527832,24.4905948638916,117.58017539978027
1759159771.7455046,1759159771.7988966,103.1491756439209,0.5447864532470703,0.10180473327636719,22.069454193115234,22.1712589263916,23.87094497680664,77.00324058532715
1759159771.8505502,1759159771.9430811,140.2289867401123,0.7834434509277344,0.07295608520507812,20.5690860748291,20.64204216003418,21.80933952331543,72.35074043273926
1759159771.990975,1759159772.0854847,145.69830894470215,0.3578662872314453,0.07224082946777344,20.79010009765625,20.862340927124023,21.837234497070312,94.7120189666748
1759159772.1409838,1759159772.2079928,163.6826992034912,0.23436546325683594,0.09036064147949219,23.40221405029297,23.49257469177246,25.430679321289062,95.10040283203125
1759159772.3048153,1759159772.3528578,141.9050693511963,0.06961822509765625,0.07843971252441406,24.79410171508789,24.872541427612305,25.252819061279297,70.92618942260742
1759159772.4531786,1759159772.5457861,146.92068099975586,0.3304481506347656,0.07557868957519531,20.975589752197266,21.05116844177246,22.064685821533203,93.09983253479004
1759159772.606603,1759159772.694125,165.33684730529785,1.6489028930664062,0.0858306884765625,21.50249481201172,21.58832550048828,23.804187774658203,95.91531753540039
1759159772.7777097,1759159772.8643048,165.25530815124512,0.3879070281982422,0.08320808410644531,21.188735961914062,21.271944046020508,22.48668670654297,94.61259841918945
1759159772.9485617,1759159773.0338244,158.62321853637695,1.0814666748046875,0.08511543273925781,21.022796630859375,21.107912063598633,24.56498146057129,114.7921085357666
1759159773.1073852,1759159773.1816223,125.62060356140137,0.36716461181640625,0.08296966552734375,20.804882049560547,20.88785171508789,21.894216537475586,92.88883209228516
1759159773.2371824,1759159773.3281007,143.89657974243164,0.6079673767089844,0.08130073547363281,21.41594886779785,21.497249603271484,23.117780685424805,95.38531303405762
1759159773.3856032,1759159773.474221,164.05153274536133,0.8690357208251953,0.08440017700195312,21.450042724609375,21.534442901611328,23.398876190185547,96.98796272277832
1759159773.5502813,1759159773.6227903,121.65045738220215,1.0051727294921875,0.08392333984375,21.17300033569336,21.25692367553711,22.68195152282715,74.33748245239258
1759159773.6721344,1759159773.7656834,120.45168876647949,0.2968311309814453,0.06604194641113281,20.494699478149414,20.560741424560547,21.37589454650879,70.86062431335449
1759159773.7978566,1759159773.9068224,162.07551956176758,0.32329559326171875,0.07033348083496094,20.617008209228516,20.687341690063477,21.527528762817383,71.42758369445801
1759159773.9601982,1759159774.0516543,163.4809970855713,0.6833076477050781,0.07033348083496094,20.600557327270508,20.67089080810547,21.823883056640625,95.31903266906738
1759159774.1250398,1759159774.1998582,164.3993854522705,0.39839744567871094,0.07963180541992188,22.296428680419922,22.376060485839844,23.47421646118164,92.76390075683594
1759159774.28962,1759159774.3394032,98.48213195800781,0.6549358367919922,0.0629425048828125,20.855426788330078,20.91836929321289,23.354053497314453,72.02816009521484
1759159774.390575,1759159774.4837387,140.4893398284912,0.675201416015625,0.06580352783203125,20.661354064941406,20.727157592773438,22.90034294128418,73.4713077545166
1759159774.5345843,1759159774.624531,116.32895469665527,1.3196468353271484,0.06318092346191406,20.816564559936523,20.879745483398438,22.49455451965332,72.5092887878418
1759159774.655513,1759159774.7660487,136.52706146240234,0.1876354217529297,0.06556510925292969,20.973920822143555,21.039485931396484,21.669864654541016,52.00386047363281
1759159774.7976186,1759159774.912787,147.06802368164062,0.22721290588378906,0.080108642578125,21.6219425201416,21.702051162719727,22.27306365966797,54.945945739746094
1759159774.9449039,1759159775.058081,167.15097427368164,0.44536590576171875,0.09322166442871094,26.809215545654297,26.902437210083008,27.699708938598633,79.14423942565918
1759159775.1122582,1759159775.2041245,144.46020126342773,1.7261505126953125,0.0705718994140625,21.92997932434082,22.000551223754883,24.27983283996582,115.79155921936035
1759159775.2595718,1759159775.3507075,143.36037635803223,0.3287792205810547,0.07724761962890625,23.404598236083984,23.48184585571289,24.642229080200195,118.31927299499512
1759159775.4069738,1759159775.4966593,163.5727882385254,0.3676414489746094,0.08702278137207031,23.909330368041992,23.996353149414062,25.272130966186523,118.49069595336914
1759159775.571571,1759159775.6460834,151.7958641052246,0.3256797790527344,0.09250640869140625,22.8421688079834,22.934675216674805,24.218082427978516,95.78061103820801
1759159775.7236135,1759159775.7934413,141.88599586486816,0.2200603485107422,0.08702278137207031,24.152278900146484,24.239301681518555,26.29256248474121,98.57654571533203
1759159775.8657012,1759159775.9412956,147.94111251831055,0.4646778106689453,0.08106231689453125,22.20749855041504,22.28856086730957,23.82063865661621,98.88553619384766
1759159776.0156548,1759159776.0913515,169.76046562194824,0.18978118896484375,0.09179115295410156,25.073766708374023,25.165557861328125,25.769710540771484,96.6036319732666
1759159776.1855838,1759159776.238446,102.5848388671875,0.5357265472412109,0.0858306884765625,21.788597106933594,21.874427795410156,23.262977600097656,74.6452808380127
1759159776.2906163,1759159776.3845391,121.71602249145508,0.4534721374511719,0.0820159912109375,21.030664443969727,21.112680435180664,22.289276123046875,74.56350326538086
1759159776.4215844,1759159776.528637,136.4891529083252,0.3707408905029297,0.07152557373046875,21.36373519897461,21.435260772705078,22.369861602783203,72.6022720336914
1759159776.5588148,1759159776.6279993,155.21764755249023,0.060558319091796875,0.07987022399902344,25.267839431762695,25.34770965576172,25.728940963745117,72.20244407653809
1759159776.7142048,1759159776.8225589,137.04991340637207,0.4253387451171875,0.08273124694824219,21.157264709472656,21.2399959564209,22.40586280822754,74.75423812866211
1759159776.8557043,1759159776.968763,140.3501033782959,0.3504753112792969,0.07414817810058594,20.98369598388672,21.057844161987305,21.895408630371094,71.88272476196289
1759159776.9968407,1759159777.0623984,137.77947425842285,0.057220458984375,0.07343292236328125,26.265859603881836,26.339292526245117,26.660442352294922,70.69230079650879
1759159777.1392586,1759159777.2055185,142.38405227661133,0.0629425048828125,0.07224082946777344,26.549339294433594,26.621580123901367,27.093172073364258,72.9684829711914
1759159777.2824595,1759159777.3506448,145.24173736572266,0.06270408630371094,0.07963180541992188,26.662111282348633,26.741743087768555,27.16803550720215,74.12981986999512
1759159777.4285228,1759159777.4968379,148.38838577270508,0.05841255187988281,0.06818771362304688,25.468111038208008,25.536298751831055,25.858402252197266,70.54018974304199
1759159777.5815623,1759159777.6638918,151.04222297668457,0.2951622009277344,0.06580352783203125,21.004438400268555,21.070241928100586,21.7742919921875,72.2036361694336
1759159777.7327292,1759159777.8042152,122.13444709777832,1.4126300811767578,0.07367134094238281,20.958423614501953,21.032094955444336,22.702693939208984,91.2008285522461
1759159777.8591664,1759159777.9685104,136.78240776062012,0.18739700317382812,0.06127357482910156,22.060871124267578,22.12214469909668,22.538185119628906,72.66831398010254
1759159778.0005915,1759159778.0845234,137.68362998962402,0.11849403381347656,0.07557868957519531,29.20222282409668,29.277801513671875,29.785871505737305,76.82967185974121
1759159778.1384826,1759159778.2309551,147.19152450561523,1.1372566223144531,0.07963180541992188,22.464513778686523,22.544145584106445,25.39992332458496,116.95742607116699
1759159778.2871401,1759159778.3836071,150.49386024475098,0.5385875701904297,0.08106231689453125,21.412372589111328,21.49343490600586,23.231029510498047,116.31131172180176
1759159778.446643,1759159778.5059195,150.47383308410645,0.6682872772216797,0.07104873657226562,20.904064178466797,20.975112915039062,23.43130111694336,111.7696762084961
1759159778.597332,1759159778.64994,123.47960472106934,0.6964206695556641,0.07510185241699219,22.27473258972168,22.349834442138672,23.453474044799805,74.5701789855957
1759159778.7209659,1759159778.7970972,147.0487117767334,0.7796287536621094,0.08344650268554688,22.756338119506836,22.839784622192383,23.97012710571289,76.3845443725586
1759159778.8682325,1759159778.9412937,125.25415420532227,2.174854278564453,0.080108642578125,21.267414093017578,21.347522735595703,23.95915985107422,95.93558311462402
1759159778.998095,1759159779.089144,163.87438774108887,1.5804767608642578,0.08511543273925781,21.93164825439453,22.01676368713379,25.902271270751953,95.75796127319336
1759159779.1621094,1759159779.2380695,127.86030769348145,1.795053482055664,0.08535385131835938,21.468639373779297,21.553993225097656,23.91648292541504,96.81010246276855
1759159779.2936468,1759159779.360971,142.05527305603027,0.061511993408203125,0.08726119995117188,26.32617950439453,26.413440704345703,26.899337768554688,73.75311851501465
1759159779.4407706,1759159779.5093286,162.01353073120117,0.1685619354248047,0.08678436279296875,24.860858917236328,24.947643280029297,25.536060333251953,73.60482215881348
1759159779.608649,1759159779.6566963,141.45493507385254,0.08797645568847656,0.08463859558105469,24.687767028808594,24.77240562438965,25.1772403717041,71.37060165405273
1759159779.7571874,1759159779.8022642,138.44037055969238,0.07367134094238281,0.09036064147949219,25.117158889770508,25.20751953125,25.621891021728516,72.21651077270508
1759159779.8976467,1759159779.9485652,148.00143241882324,0.07367134094238281,0.08177757263183594,24.529695510864258,24.611473083496094,25.05636215209961,71.46263122558594
1759159780.0459642,1759159780.0975127,143.90230178833008,0.07772445678710938,0.09036064147949219,24.48725700378418,24.577617645263672,25.003433227539062,72.0205307006836
1759159780.1900127,1759159780.2420192,100.07572174072266,0.9381771087646484,0.07748603820800781,20.915508270263672,20.99299430847168,22.8426456451416,73.33731651306152
1759159780.2936082,1759159780.3836787,119.37546730041504,0.3070831298828125,0.06365776062011719,20.848989486694336,20.912647247314453,21.725177764892578,70.88088989257812
1759159780.4186618,1759159780.5276814,158.6611270904541,0.4115104675292969,0.07867813110351562,21.175384521484375,21.25406265258789,22.221803665161133,93.96028518676758
1759159780.5886042,1759159780.6739852,137.33744621276855,0.3821849822998047,0.08106231689453125,21.168947219848633,21.250009536743164,22.464513778686523,94.01488304138184
1759159780.731605,1759159780.7965126,138.27133178710938,0.2448558807373047,0.06270408630371094,20.568132400512695,20.630836486816406,21.347761154174805,91.11237525939941
1759159780.8745515,1759159780.9602873,159.40117835998535,1.3706684112548828,0.06556510925292969,21.889686584472656,21.955251693725586,23.707151412963867,95.28040885925293
1759159781.0395346,1759159781.103234,153.21779251098633,0.22125244140625,0.07152557373046875,22.613525390625,22.68505096435547,23.48184585571289,92.91958808898926
1759159781.1928763,1759159781.2424817,97.19514846801758,0.4329681396484375,0.06413459777832031,21.50249481201172,21.56662940979004,23.892879486083984,72.39794731140137
1759159781.2902436,1759159781.385671,125.43892860412598,1.584768295288086,0.08893013000488281,21.49820327758789,21.587133407592773,23.55647087097168,76.0045051574707
1759159781.4158459,1759159781.5054038,142.9312229156494,0.07987022399902344,0.08249282836914062,27.94027328491211,28.02276611328125,28.42879295349121,76.62200927734375
1759159781.5589776,1759159781.6522968,148.7424373626709,1.161813735961914,0.09369850158691406,21.019458770751953,21.113157272338867,23.092031478881836,115.24343490600586
1759159781.7078917,1759159781.7978096,143.74136924743652,0.07081031799316406,0.07367134094238281,27.382612228393555,27.456283569335938,27.838468551635742,73.69422912597656
1759159781.856576,1759159781.968755,138.46921920776367,0.2219676971435547,0.07891654968261719,21.16870880126953,21.24762535095215,21.91448211669922,53.10845375061035
1759159781.9991758,1759159782.087952,161.01980209350586,0.17976760864257812,0.08463859558105469,26.72433853149414,26.808977127075195,27.32563018798828,75.20914077758789
1759159782.1603446,1759159782.2326484,123.47078323364258,0.9610652923583984,0.08392333984375,21.090030670166016,21.173954010009766,23.135900497436523,94.12240982055664
1759159782.2840261,1759159782.3791714,128.92842292785645,0.7028579711914062,0.08225440979003906,21.000146865844727,21.082401275634766,22.896766662597656,93.18089485168457
1759159782.4225686,1759159782.5041063,165.52138328552246,0.34356117248535156,0.09083747863769531,21.4998722076416,21.590709686279297,22.690534591674805,116.00041389465332
1759159782.5925632,1759159782.6747143,161.163330078125,1.8188953399658203,0.08726119995117188,21.175146102905273,21.262407302856445,23.869752883911133,118.8969612121582
1759159782.7579544,1759159782.8493166,162.7063751220703,0.4394054412841797,0.08249282836914062,21.69322967529297,21.77572250366211,24.255990982055664,96.05813026428223
1759159782.922014,1759159782.9968762,149.92284774780273,1.4050006866455078,0.08416175842285156,21.251916885375977,21.336078643798828,23.57792854309082,94.22802925109863
1759159783.0721395,1759159783.1414244,141.51382446289062,0.2980232238769531,0.08654594421386719,23.842811584472656,23.929357528686523,25.893211364746094,77.67271995544434
1759159783.2138803,1759159783.2876053,148.08893203735352,0.29921531677246094,0.08630752563476562,24.100542068481445,24.18684959411621,26.296615600585938,78.4149169921875
1759159783.3657372,1759159783.4368465,143.10693740844727,0.11086463928222656,0.08893013000488281,26.39913558959961,26.488065719604492,27.01115608215332,96.60673141479492
1759159783.5125859,1759159783.5797374,140.0911808013916,0.05793571472167969,0.07033348083496094,26.318073272705078,26.38840675354004,26.7031192779541,70.4488754272461
1759159783.652868,1759159783.721799,142.86112785339355,0.06031990051269531,0.07224082946777344,25.33411979675293,25.406360626220703,25.769472122192383,71.20370864868164
1759159783.7959595,1759159783.8653493,154.1609764099121,0.05888938903808594,0.08344650268554688,25.608539581298828,25.691986083984375,26.043415069580078,73.07028770446777
1759159783.950288,1759159784.058868,144.6511745452881,0.4508495330810547,0.08320808410644531,21.356821060180664,21.44002914428711,22.681236267089844,73.67277145385742
1759159784.0985749,1759159784.205655,134.93824005126953,0.36334991455078125,0.07748603820800781,21.2247371673584,21.302223205566406,22.286653518676758,73.35758209228516
1759159784.243597,1759159784.3506951,164.31927680969238,0.31828880310058594,0.06771087646484375,20.604848861694336,20.67255973815918,21.43096923828125,93.00112724304199
1759159784.4115665,1759159784.4916413,132.45439529418945,0.2913475036621094,0.05793571472167969,20.93219757080078,20.99013328552246,21.988391876220703,93.1863784790039
1759159784.549573,1759159784.6351821,136.11602783203125,1.4147758483886719,0.072479248046875,21.67057991027832,21.743059158325195,23.606538772583008,92.60797500610352
1759159784.6863182,1759159784.750501,138.61584663391113,0.0591278076171875,0.0629425048828125,25.39682388305664,25.459766387939453,25.7871150970459,69.37432289123535
1759159784.8300786,1759159784.939057,160.0193977355957,0.39124488830566406,0.08463859558105469,21.771907806396484,21.85654640197754,22.813796997070312,74.1431713104248
1759159784.9902244,1759159785.085413,130.73134422302246,0.6248950958251953,0.08463859558105469,20.92599868774414,21.010637283325195,22.706031799316406,72.92866706848145
1759159785.1246014,1759159785.2340076,161.3321304321289,0.46324729919433594,0.09965896606445312,20.992040634155273,21.091699600219727,22.2170352935791,76.6448974609375
1759159785.2893336,1759159785.3776917,158.70428085327148,0.6582736968994141,0.07653236389160156,22.463083267211914,22.539615631103516,23.503541946411133,74.2342472076416
1759159785.4488597,1759159785.5244024,144.8194980621338,0.2932548522949219,0.07963180541992188,20.702123641967773,20.781755447387695,21.63410186767578,74.54442977905273
1759159785.598564,1759159785.6697218,142.52376556396484,0.30803680419921875,0.08440017700195312,23.137807846069336,23.22220802307129,25.406837463378906,75.2711296081543
1759159785.7413125,1759159785.8147485,122.83492088317871,0.5230903625488281,0.08654594421386719,21.67820930480957,21.764755249023438,22.774219512939453,73.43053817749023
1759159785.864366,1759159785.9596505,124.32742118835449,0.3771781921386719,0.08153915405273438,20.973682403564453,21.055221557617188,22.055864334106445,72.55935668945312
1759159785.993572,1759159786.083837,144.56629753112793,0.23126602172851562,0.08177757263183594,21.670103073120117,21.751880645751953,22.534608840942383,74.69439506530762
1759159786.146584,1759159786.2534213,157.32979774475098,0.8752346038818359,0.0858306884765625,21.544933319091797,21.63076400756836,23.279905319213867,76.81512832641602
1759159786.304115,1759159786.3994155,128.87048721313477,2.2230148315429688,0.08249282836914062,21.346092224121094,21.428585052490234,24.73592758178711,98.30331802368164
1759159786.4331582,1759159786.5202823,142.08221435546875,0.3895759582519531,0.08511543273925781,26.028871536254883,26.11398696899414,28.246402740478516,74.15056228637695
1759159786.5795324,1759159786.6932392,143.41306686401367,0.23484230041503906,0.09179115295410156,21.320581436157227,21.412372589111328,22.060394287109375,54.82983589172363
1759159786.7261612,1759159786.8344903,140.8405303955078,0.23555755615234375,0.087738037109375,26.92437171936035,27.012109756469727,28.961658477783203,77.15582847595215
1759159786.8671904,1759159786.9822743,168.5349941253662,1.7666816711425781,0.09894371032714844,22.13311195373535,22.2320556640625,26.001930236816406,118.70408058166504
1759159787.0359313,1759159787.1306663,150.01320838928223,0.2906322479248047,0.06771087646484375,22.14646339416504,22.214174270629883,23.024797439575195,116.49060249328613
1759159787.1865485,1759159787.2738311,156.87870979309082,0.7359981536865234,0.06961822509765625,20.7369327545166,20.806550979614258,22.028446197509766,93.36209297180176
1759159787.343659,1759159787.418558,145.71309089660645,0.7421970367431641,0.08320808410644531,20.838499069213867,20.921707153320312,22.281408309936523,94.98953819274902
1759159787.4932346,1759159787.5655193,163.27810287475586,0.3407001495361328,0.080108642578125,23.655414581298828,23.735523223876953,24.838924407958984,115.22960662841797
1759159787.6566439,1759159787.7067368,97.06473350524902,0.42557716369628906,0.06365776062011719,21.043777465820312,21.10743522644043,22.128820419311523,71.02155685424805
1759159787.7538803,1759159787.847852,122.57647514343262,0.2758502960205078,0.05841255187988281,20.719528198242188,20.77794075012207,21.522045135498047,73.49228858947754
1759159787.8792682,1759159787.9634047,135.9543800354004,0.18095970153808594,0.06437301635742188,24.03545379638672,24.09982681274414,25.793075561523438,72.11422920227051
1759159788.0186107,1759159788.1029162,153.66244316101074,0.5381107330322266,0.07104873657226562,22.302865982055664,22.37391471862793,23.402929306030273,91.21966361999512
1759159788.1724114,1759159788.2449577,145.8415985107422,0.3838539123535156,0.07796287536621094,22.965431213378906,23.043394088745117,23.962974548339844,96.49157524108887
1759159788.319272,1759159788.3944926,147.37176895141602,0.29754638671875,0.08654594421386719,21.535158157348633,21.6217041015625,23.85687828063965,97.44596481323242
1759159788.4671805,1759159788.5444243,152.11749076843262,0.3962516784667969,0.08869171142578125,23.378610610961914,23.467302322387695,24.74832534790039,98.27375411987305
1759159788.6194496,1759159788.6887617,159.78312492370605,0.1685619354248047,0.08034706115722656,24.459123611450195,24.539470672607422,25.040864944458008,92.26608276367188
1759159788.7794678,1759159788.8318622,101.08137130737305,0.9584426879882812,0.07677078247070312,20.914316177368164,20.991086959838867,22.663116455078125,73.2889175415039
1759159788.8807652,1759159788.9765966,125.50902366638184,0.43129920959472656,0.08082389831542969,21.180391311645508,21.261215209960938,22.336483001708984,74.01132583618164
1759159789.0135808,1759159789.1002996,140.50555229187012,0.24461746215820312,0.080108642578125,21.126508712768555,21.20661735534668,22.037029266357422,73.40264320373535
1759159789.154281,1759159789.2471166,142.71211624145508,0.23746490478515625,0.080108642578125,21.01278305053711,21.092891693115234,21.926403045654297,73.57072830200195
1759159789.3020184,1759159789.3929856,146.91948890686035,0.24747848510742188,0.0820159912109375,22.006988525390625,22.089004516601562,22.93562889099121,75.4387378692627
1759159789.4526284,1759159789.565556,145.88117599487305,0.45680999755859375,0.08940696716308594,21.279335021972656,21.368741989135742,22.58610725402832,75.34956932067871
1759159789.603568,1759159789.715939,140.48147201538086,0.4208087921142578,0.08296966552734375,21.793603897094727,21.87657356262207,23.048877716064453,75.98757743835449
1759159789.7441938,1759159789.8145814,143.94164085388184,0.06580352783203125,0.08678436279296875,26.340961456298828,26.427745819091797,26.92270278930664,73.92668724060059
1759159789.8911731,1759159789.962153,147.4926471710205,0.06747245788574219,0.0896453857421875,26.640892028808594,26.73053741455078,27.219295501708984,73.95076751708984
1759159790.042604,1759159790.1107237,153.06472778320312,0.1068115234375,0.08654594421386719,26.20673179626465,26.293277740478516,26.78847312927246,73.79984855651855
1759159790.1958566,1759159790.2880545,144.84000205993652,0.2605915069580078,0.08845329284667969,22.211074829101562,22.299528121948242,23.113727569580078,77.30460166931152
1759159790.3414788,1759159790.4164047,149.89495277404785,0.15115737915039062,0.087738037109375,27.0078182220459,27.095556259155273,27.868270874023438,77.85272598266602
1759159790.4976506,1759159790.5712087,147.47905731201172,0.3273487091064453,0.10991096496582031,24.71637725830078,24.8262882232666,25.727033615112305,80.90543746948242
1759159790.6477168,1759159790.7245007,146.98076248168945,0.5013942718505859,0.09179115295410156,21.512269973754883,21.604061126708984,22.993087768554688,77.06284523010254
1759159790.794921,1759159790.871775,109.09605026245117,0.3008842468261719,0.09083747863769531,22.68838882446289,22.779226303100586,23.753881454467773,54.42929267883301
1759159790.9041939,1759159790.9915476,141.43896102905273,0.08630752563476562,0.09655952453613281,27.72212028503418,27.818679809570312,28.304338455200195,74.89204406738281
1759159791.0498843,1759159791.1369336,138.24009895324707,0.12040138244628906,0.08153915405273438,27.507305145263672,27.588844299316406,28.007984161376953,73.74167442321777
1759159791.188256,1759159791.2789052,144.18411254882812,1.0211467742919922,0.07557868957519531,21.602392196655273,21.67797088623047,23.462533950805664,114.28666114807129
1759159791.333613,1759159791.4296691,156.39328956604004,0.7700920104980469,0.11539459228515625,26.519060134887695,26.63445472717285,28.69439125061035,128.06034088134766
1759159791.5025868,1759159791.5676749,141.49236679077148,0.17333030700683594,0.07510185241699219,21.132469177246094,21.207571029663086,21.811485290527344,92.33236312866211
1759159791.6535826,1759159791.7578125,154.41370010375977,0.9005069732666016,0.08273124694824219,21.08597755432129,21.16870880126953,22.572994232177734,92.76914596557617
1759159791.8081841,1759159791.8991494,122.72453308105469,0.4572868347167969,0.06103515625,20.69854736328125,20.75958251953125,22.031784057617188,90.6825065612793
1759159791.9355655,1759159792.0212052,164.3228530883789,1.4040470123291016,0.07486343383789062,21.98314666748047,22.05801010131836,23.83112907409668,93.66035461425781
1759159792.1005383,1759159792.165063,137.16650009155273,0.17380714416503906,0.05984306335449219,20.785808563232422,20.845651626586914,21.37160301208496,91.34674072265625
1759159792.2397387,1759159792.3511243,161.0586643218994,0.32210350036621094,0.07176399230957031,21.790027618408203,21.861791610717773,22.67169952392578,95.21055221557617
1759159792.407629,1759159792.4757779,161.9246006011963,0.21386146545410156,0.08153915405273438,23.613691329956055,23.69523048400879,24.73139762878418,96.82846069335938
1759159792.5697868,1759159792.6232483,104.48479652404785,0.5283355712890625,0.09489059448242188,22.118091583251953,22.212982177734375,23.750782012939453,75.84071159362793
1759159792.674525,1759159792.7696748,126.4810562133789,0.31828880310058594,0.07081031799316406,20.809650421142578,20.880460739135742,21.69632911682129,72.83735275268555
1759159792.8011916,1759159792.8889692,159.09218788146973,0.20813941955566406,0.07557868957519531,24.808645248413086,24.88422393798828,26.75604820251465,74.69606399536133
1759159792.9605186,1759159793.0316434,122.88880348205566,0.9582042694091797,0.07963180541992188,21.149635314941406,21.229267120361328,24.39427375793457,94.49529647827148
1759159793.083625,1759159793.1802812,125.19001960754395,0.5056858062744141,0.07963180541992188,21.15345001220703,21.233081817626953,22.521495819091797,74.00774955749512
1759159793.2175732,1759159793.3266163,146.3625431060791,0.45990943908691406,0.08726119995117188,21.09527587890625,21.182537078857422,22.336483001708984,73.64869117736816
1759159793.3675961,1759159793.4724855,139.34040069580078,0.4048347473144531,0.07653236389160156,21.13175392150879,21.20828628540039,22.38607406616211,73.84061813354492
1759159793.51064,1759159793.6214573,161.84139251708984,0.9679794311523438,0.09298324584960938,21.544933319091797,21.637916564941406,24.643898010253906,77.01349258422852
1759159793.67464,1759159793.7704873,127.33840942382812,0.2684593200683594,0.09179115295410156,23.195505142211914,23.287296295166016,23.968219757080078,76.31635665893555
1759159793.8021486,1759159793.8921075,162.64081001281738,0.1895427703857422,0.08845329284667969,26.59773826599121,26.68619155883789,27.280569076538086,75.68764686584473
1759159793.9650264,1759159794.0371006,122.59149551391602,0.9315013885498047,0.08082389831542969,20.827054977416992,20.907878875732422,24.19424057006836,95.05486488342285
1759159794.0878103,1759159794.185226,153.2268524169922,0.45299530029296875,0.08344650268554688,21.483421325683594,21.56686782836914,22.77088165283203,97.076416015625
1759159794.2455707,1759159794.3102598,137.2048854827881,0.263214111328125,0.08630752563476562,21.334409713745117,21.420717239379883,22.263526916503906,94.58231925964355
1759159794.3921702,1759159794.502729,144.0446376800537,0.7393360137939453,0.08511543273925781,21.22187614440918,21.306991577148438,23.21624755859375,94.4833755493164
1759159794.5446243,1759159794.6255438,134.3986988067627,0.2586841583251953,0.06651878356933594,20.739316940307617,20.805835723876953,21.582841873168945,90.68107604980469
1759159794.6865659,1759159794.767761,138.95797729492188,0.34356117248535156,0.0667572021484375,20.719051361083984,20.785808563232422,21.780729293823242,90.97003936767578
1759159794.8306358,1759159794.9341457,178.8012981414795,0.4985332489013672,0.07176399230957031,22.515535354614258,22.587299346923828,23.555755615234375,117.94185638427734
1759159795.0156872,1759159795.128745,144.73748207092285,0.518798828125,0.06318092346191406,20.330429077148438,20.39361000061035,21.81696891784668,91.4609432220459
1759159795.1645663,1759159795.2488983,154.0515422821045,1.3670921325683594,0.06079673767089844,21.062850952148438,21.123647689819336,22.965431213378906,92.8797721862793
1759159795.3192596,1759159795.392696,145.91622352600098,0.2701282501220703,0.06365776062011719,21.881818771362305,21.945476531982422,22.908449172973633,93.05667877197266
1759159795.465344,1759159795.5341039,137.7694606781006,0.1919269561767578,0.06532669067382812,23.060083389282227,23.125410079956055,24.912118911743164,93.9326286315918
1759159795.6058905,1759159795.6746957,161.604642868042,0.18215179443359375,0.06866455078125,25.64859390258789,25.71725845336914,26.323795318603516,94.61498260498047
1759159795.7677388,1759159795.8198147,101.82857513427734,0.5216598510742188,0.08511543273925781,21.716594696044922,21.80171012878418,23.115158081054688,73.63033294677734
1759159795.8716285,1759159795.966562,126.31678581237793,0.48851966857910156,0.09298324584960938,21.355867385864258,21.448850631713867,22.67313003540039,74.05567169189453
1759159796.0035746,1759159796.0905337,140.35749435424805,0.18978118896484375,0.07390975952148438,20.700931549072266,20.77484130859375,21.39878273010254,71.3498592376709
1759159796.1485598,1759159796.2544272,157.12451934814453,0.3867149353027344,0.07390975952148438,21.00849151611328,21.082401275634766,22.01080322265625,72.36361503601074
1759159796.310575,1759159796.4005697,161.25988960266113,0.8745193481445312,0.10800361633300781,21.042585372924805,21.150588989257812,22.91560173034668,95.58510780334473
1759159796.4720485,1759159796.5454206,149.90520477294922,0.6985664367675781,0.08082389831542969,21.037817001342773,21.118640899658203,22.24135398864746,95.02363204956055
1759159796.6315656,1759159796.7169673,162.10150718688965,0.5588531494140625,0.08344650268554688,21.07548713684082,21.158933639526367,22.467374801635742,95.88813781738281
1759159796.7943475,1759159796.8631988,118.89791488647461,0.8149147033691406,0.08630752563476562,21.713733673095703,21.80004119873047,23.557186126708984,73.8062858581543
1759159796.9134533,1759159797.009443,124.96066093444824,0.47659873962402344,0.08559226989746094,21.389484405517578,21.47507667541504,22.710323333740234,74.74803924560547
1759159797.0475893,1759159797.134815,147.33481407165527,0.24962425231933594,0.08797645568847656,21.252870559692383,21.34084701538086,22.206783294677734,74.07546043395996
1759159797.19511,1759159797.3034508,135.86997985839844,0.4265308380126953,0.07987022399902344,20.97296714782715,21.052837371826172,22.090435028076172,73.57931137084961
1759159797.3359,1759159797.4014928,158.39624404907227,0.16117095947265625,0.0782012939453125,24.405717849731445,24.483919143676758,24.959802627563477,72.19886779785156
1759159797.4951472,1759159797.5495286,125.54264068603516,0.29778480529785156,0.08535385131835938,22.912025451660156,22.997379302978516,24.889230728149414,78.11188697814941
1759159797.6241891,1759159797.6973834,145.44129371643066,0.31065940856933594,0.09465217590332031,23.601531982421875,23.696184158325195,25.865793228149414,79.54716682434082
1759159797.7698584,1759159797.8448412,124.40705299377441,0.5202293395996094,0.08702278137207031,22.368669509887695,22.455692291259766,23.732662200927734,75.3636360168457
1759159797.8944495,1759159797.9873073,125.13327598571777,0.3180503845214844,0.06532669067382812,20.902395248413086,20.967721939086914,21.785736083984375,73.04096221923828
1759159798.0245576,1759159798.1304207,155.73906898498535,0.7183551788330078,0.07796287536621094,22.472858428955078,22.55082130432129,23.669004440307617,74.76425170898438
1759159798.1815019,1759159798.2766147,152.56261825561523,0.40435791015625,0.6268024444580078,24.84607696533203,25.47287940979004,26.904821395874023,78.77850532531738
1759159798.3342814,1759159798.4233606,158.57195854187012,0.2636909484863281,0.07104873657226562,24.29986000061035,24.370908737182617,25.0699520111084,73.96674156188965
1759159798.4935293,1759159798.5644407,145.09057998657227,0.3352165222167969,0.6744861602783203,23.059368133544922,23.733854293823242,24.738788604736328,94.49148178100586
1759159798.6392198,1759159798.7078304,143.45598220825195,0.06771087646484375,0.06413459777832031,25.84075927734375,25.90489387512207,26.227951049804688,92.14282035827637
1759159798.7875583,1759159798.875734,143.3541774749756,0.16260147094726562,0.06103515625,20.791292190551758,20.852327346801758,21.364688873291016,70.7700252532959
1759159798.9310467,1759159799.0395715,135.03479957580566,0.4382133483886719,0.07987022399902344,20.838499069213867,20.91836929321289,21.966934204101562,72.37029075622559
1759159799.0745788,1759159799.1389565,139.15681838989258,0.06651878356933594,0.10275840759277344,26.25298500061035,26.355743408203125,26.819229125976562,73.2421875
1759159799.2138832,1759159799.2875135,155.0438404083252,0.06985664367675781,0.09083747863769531,26.476621627807617,26.567459106445312,27.022361755371094,73.21953773498535
1759159799.3735502,1759159799.4574711,134.4470977783203,0.21600723266601562,0.07534027099609375,20.879745483398438,20.95508575439453,21.619558334350586,71.68722152709961
1759159799.5135734,1759159799.6227553,141.4203643798828,0.41484832763671875,0.07867813110351562,21.172761917114258,21.251440048217773,22.43638038635254,73.56905937194824
1759159799.6596155,1759159799.7695405,161.3140106201172,0.3726482391357422,0.07772445678710938,21.161317825317383,21.239042282104492,22.166013717651367,72.33190536499023
1759159799.8246768,1759159799.9161592,141.42704010009766,0.49042701721191406,0.08463859558105469,21.32892608642578,21.413564682006836,23.086071014404297,74.66673851013184
1759159799.96632,1759159800.0621507,134.69219207763672,0.4527568817138672,0.08130073547363281,20.921945571899414,21.003246307373047,22.06563949584961,73.29702377319336
1759159800.1052272,1759159800.169658,158.65516662597656,0.1609325408935547,0.08726119995117188,25.509357452392578,25.59661865234375,26.196956634521484,74.53417778015137
1759159800.2652383,1759159800.3187122,147.17721939086914,0.08225440979003906,0.087738037109375,25.16627311706543,25.254011154174805,25.75516700744629,71.8386173248291
1759159800.4156468,1759159800.4659846,142.6715850830078,0.07605552673339844,0.09608268737792969,24.53017234802246,24.62625503540039,25.063753128051758,71.07043266296387
1759159800.5589273,1759159800.6109896,122.19905853271484,0.2837181091308594,0.08320808410644531,23.519039154052734,23.60224723815918,25.458097457885742,76.54118537902832
1759159800.6846366,1759159800.7547429,143.76354217529297,0.23508071899414062,0.08320808410644531,25.745153427124023,25.82836151123047,27.601957321166992,99.43675994873047
1759159800.8286428,1759159800.900773,124.89056587219238,0.9975433349609375,0.0858306884765625,21.521329879760742,21.607160568237305,24.75738525390625,95.5820083618164
1759159800.9537325,1759159801.0521042,149.6121883392334,0.4076957702636719,0.08177757263183594,21.263837814331055,21.34561538696289,22.413015365600586,96.86112403869629
1759159801.1034913,1759159801.1507983,181.11634254455566,0.07200241088867188,0.08130073547363281,34.51704978942871,34.598350524902344,34.96694564819336,96.7249870300293
1759159801.2847958,1759159801.3513591,143.31483840942383,0.2033710479736328,0.07104873657226562,20.73359489440918,20.804643630981445,21.49343490600586,91.77565574645996
1759159801.4341664,1759159801.5174341,138.36979866027832,0.3681182861328125,0.07128715515136719,21.027326583862305,21.098613739013672,22.237777709960938,93.00088882446289
1759159801.5777783,1759159801.6651843,183.56561660766602,0.3898143768310547,0.08344650268554688,22.0794677734375,22.162914276123047,24.48105812072754,96.8782901763916
1759159801.7615266,1759159801.8158317,146.1353302001953,0.4074573516845703,0.08654594421386719,21.41880989074707,21.505355834960938,22.747278213500977,93.24407577514648
1759159801.9079397,1759159801.9598606,118.97563934326172,0.31495094299316406,0.07581710815429688,21.23093605041504,21.306753158569336,23.32901954650879,72.84116744995117
1759159802.0271,1759159802.0963688,141.6757106781006,0.19931793212890625,0.06365776062011719,24.43861961364746,24.502277374267578,26.19338035583496,73.11630249023438
1759159802.1689079,1759159802.2387962,119.05765533447266,0.8022785186767578,0.06771087646484375,20.714759826660156,20.782470703125,23.238658905029297,92.09609031677246
1759159802.2915595,1759159802.3805096,119.83346939086914,0.35572052001953125,0.06222724914550781,21.010160446166992,21.0723876953125,22.0186710357666,71.36964797973633
1759159802.411543,1759159802.498748,131.805419921875,0.15282630920410156,0.058650970458984375,20.352840423583984,20.41149139404297,20.923137664794922,69.88239288330078
1759159802.5555804,1759159802.664622,134.40585136413574,0.36907196044921875,0.07200241088867188,20.90907096862793,20.9810733795166,21.982669830322266,73.01163673400879
1759159802.7035668,1759159802.7895455,137.14957237243652,0.25010108947753906,0.08654594421386719,21.641969680786133,21.728515625,22.6898193359375,75.00076293945312
1759159802.84561,1759159802.9588664,164.3235683441162,0.31065940856933594,0.07271766662597656,20.872116088867188,20.944833755493164,21.69179916381836,72.97396659851074
1759159803.0136433,1759159803.101738,115.93985557556152,0.5347728729248047,0.07843971252441406,20.964622497558594,21.043062210083008,22.643089294433594,72.27516174316406
1759159803.1346505,1759159803.2463553,138.33928108215332,0.4584789276123047,0.08296966552734375,21.128177642822266,21.21114730834961,22.35698699951172,73.99153709411621
1759159803.27742,1759159803.344079,147.67885208129883,0.06270408630371094,0.07915496826171875,26.004552841186523,26.083707809448242,26.514768600463867,72.5545883178711
1759159803.432591,1759159803.5382643,138.0453109741211,0.46563148498535156,0.08535385131835938,21.108388900756836,21.193742752075195,22.406816482543945,75.02150535583496
1759159803.5708146,1759159803.6573648,142.47965812683105,0.12063980102539062,0.08344650268554688,26.489734649658203,26.57318115234375,27.095794677734375,75.3026008605957
1759159803.7137156,1759159803.805496,144.19031143188477,0.08153915405273438,0.09083747863769531,28.029203414916992,28.120040893554688,28.61809730529785,75.89197158813477
1759159803.8581278,1759159803.950591,145.74551582336426,1.1529922485351562,0.08678436279296875,21.056413650512695,21.143198013305664,24.315595626831055,115.65661430358887
1759159804.0040696,1759159804.0993168,152.57859230041504,0.8513927459716797,0.08630752563476562,21.167516708374023,21.25382423400879,23.23007583618164,95.32022476196289
1759159804.1568596,1759159804.2466376,163.73777389526367,0.301361083984375,0.07271766662597656,22.50957489013672,22.582292556762695,23.265361785888672,95.20673751831055
1759159804.320796,1759159804.3954496,147.03941345214844,0.3712177276611328,0.07772445678710938,22.658824920654297,22.736549377441406,23.630857467651367,96.91381454467773
1759159804.4680555,1759159804.5425916,148.1647491455078,1.9507408142089844,0.08940696716308594,21.521806716918945,21.61121368408203,24.23381805419922,96.99153900146484
1759159804.616452,1759159804.6920514,125.88262557983398,0.4298686981201172,0.0820159912109375,21.23284339904785,21.31485939025879,22.361278533935547,95.61944007873535
1759159804.751582,1759159804.835249,138.2577419281006,0.3154277801513672,0.06389617919921875,20.595550537109375,20.659446716308594,21.50249481201172,89.75100517272949
1759159804.9015832,1759159804.9979913,127.42304801940918,0.6890296936035156,0.07772445678710938,20.900249481201172,20.97797393798828,22.770404815673828,90.76523780822754
1759159805.033609,1759159805.14635,167.47021675109863,0.5552768707275391,0.07486343383789062,22.253990173339844,22.328853607177734,24.10435676574707,117.25234985351562
1759159805.2066836,1759159805.2732096,158.01000595092773,1.48773193359375,0.07390975952148438,21.04043960571289,21.114349365234375,22.926807403564453,113.14129829406738
1759159805.3735547,1759159805.41535,154.64496612548828,0.21910667419433594,0.06437301635742188,21.591663360595703,21.656036376953125,22.472858428955078,93.83559226989746
1759159805.5283885,1759159805.5588198,56.49733543395996,0.3323554992675781,0.06532669067382812,20.83301544189453,20.89834213256836,21.939992904663086,52.55746841430664
1759159805.588594,1759159805.6955378,157.27591514587402,0.24843215942382812,0.06580352783203125,25.762557983398438,25.82836151123047,27.310848236083984,74.08571243286133
1759159805.7460465,1759159805.8376741,145.96319198608398,1.7366409301757812,0.0858306884765625,22.237062454223633,22.322893142700195,25.93064308166504,116.66250228881836
1759159805.89596,1759159805.9878082,167.8333282470703,0.3829002380371094,0.07534027099609375,24.07526969909668,24.150609970092773,25.45452117919922,96.80986404418945
1759159806.069595,1759159806.1413512,164.64900970458984,0.24580955505371094,0.09465217590332031,23.61130714416504,23.70595932006836,25.629520416259766,97.05257415771484
1759159806.2343838,1759159806.2859604,121.8712329864502,0.2770423889160156,0.07343292236328125,23.36907386779785,23.442506790161133,25.31743049621582,75.76322555541992
1759159806.3564136,1759159806.4298027,125.2591609954834,0.9298324584960938,0.0858306884765625,21.21567726135254,21.3015079498291,24.452686309814453,75.0589370727539
1759159806.4818962,1759159806.5767393,147.73797988891602,1.651763916015625,0.09059906005859375,21.3167667388916,21.407365798950195,23.42367172241211,76.13945007324219
1759159806.6302528,1759159806.7208574,165.15398025512695,0.21719932556152344,0.07963180541992188,25.524139404296875,25.603771209716797,27.637958526611328,75.90341567993164
1759159806.8055887,1759159806.8964171,137.50815391540527,0.23794174194335938,0.08153915405273438,21.37279510498047,21.454334259033203,22.2318172454834,73.82893562316895
1759159806.9545717,1759159807.04329,137.43233680725098,0.2491474151611328,0.08225440979003906,21.24619483947754,21.328449249267578,22.16935157775879,73.97222518920898
1759159807.1005943,1759159807.190515,145.48754692077637,0.2605915069580078,0.08559226989746094,21.883487701416016,21.969079971313477,22.820234298706055,74.92804527282715
1759159807.2462811,1759159807.3386965,143.39780807495117,0.23651123046875,0.08249282836914062,21.381855010986328,21.46434783935547,22.295236587524414,74.39780235290527
1759159807.3932827,1759159807.4595835,141.42322540283203,0.06580352783203125,0.08440017700195312,25.825977325439453,25.910377502441406,26.309967041015625,72.93915748596191
1759159807.5349252,1759159807.604344,156.04901313781738,0.06413459777832031,0.09250640869140625,26.79443359375,26.886940002441406,27.335643768310547,74.71156120300293
1759159807.6955695,1759159807.7786987,137.73727416992188,0.2434253692626953,0.08630752563476562,21.352529525756836,21.4388370513916,22.31621742248535,75.05011558532715
1759159807.833733,1759159807.9507568,167.03462600708008,0.9007453918457031,0.095367431640625,21.55613899230957,21.651506423950195,24.41120147705078,77.07834243774414
1759159808.0009677,1759159808.0942771,142.92192459106445,1.0097026824951172,0.06699562072753906,22.075414657592773,22.142410278320312,23.747920989990234,95.2293872833252
1759159808.1440296,1759159808.2370346,147.6151943206787,0.6694793701171875,0.07033348083496094,22.45807647705078,22.528409957885742,24.013280868530273,95.9930419921875
1759159808.2955601,1759159808.3842132,141.46876335144043,0.33473968505859375,0.07534027099609375,23.57935905456543,23.654699325561523,24.874448776245117,73.93431663513184
1759159808.44059,1759159808.5308487,161.62419319152832,0.8702278137207031,0.08106231689453125,22.893190383911133,22.974252700805664,24.51491355895996,96.83775901794434
1759159808.6024022,1759159808.6726828,119.60887908935547,0.8375644683837891,0.06175041198730469,20.895004272460938,20.956754684448242,23.616313934326172,94.01535987854004
1759159808.724579,1759159808.8171067,144.0577507019043,1.6040802001953125,0.07176399230957031,22.212982177734375,22.284746170043945,24.227142333984375,96.10676765441895
1759159808.868806,1759159808.9393642,145.0350284576416,0.19812583923339844,0.06389617919921875,22.14503288269043,22.20892906188965,22.893667221069336,92.51213073730469
1759159809.0185382,1759159809.1020334,134.49597358703613,0.5362033843994141,0.06532669067382812,21.481037139892578,21.546363830566406,23.148059844970703,94.13576126098633
1759159809.1575081,1759159809.2270002,158.13112258911133,0.18024444580078125,0.08559226989746094,23.867368698120117,23.952960968017578,25.845766067504883,98.02579879760742
1759159809.315817,1759159809.424184,138.2462978363037,0.4658699035644531,0.08654594421386719,21.44598960876465,21.532535552978516,22.716999053955078,75.30951499938965
1759159809.4591093,1759159809.5686882,137.16506958007812,0.3299713134765625,0.072479248046875,20.933866500854492,21.006345748901367,21.931171417236328,71.23589515686035
1759159809.6011276,1759159809.691221,145.00713348388672,0.2143383026123047,0.08320808410644531,21.779537200927734,21.86274528503418,22.6595401763916,73.97174835205078
1759159809.7535844,1759159809.838051,143.27263832092285,0.24771690368652344,0.08630752563476562,21.37470245361328,21.461009979248047,22.275209426879883,73.32420349121094
1759159809.8970478,1759159809.9832213,141.9053077697754,0.23055076599121094,0.08749961853027344,21.103620529174805,21.191120147705078,21.976470947265625,73.75216484069824
1759159810.043568,1759159810.151287,138.4596824645996,0.4169940948486328,0.08368492126464844,21.183252334594727,21.266937255859375,22.390365600585938,73.04000854492188
1759159810.1866245,1759159810.2991743,162.33444213867188,0.8852481842041016,0.08702278137207031,21.247148513793945,21.334171295166016,22.62711524963379,75.40559768676758
1759159810.3491805,1759159810.447188,152.88496017456055,0.48828125,0.08296966552734375,21.509408950805664,21.592378616333008,22.724151611328125,98.57702255249023
1759159810.5026567,1759159810.5718231,161.86070442199707,0.23627281188964844,0.08869171142578125,23.172378540039062,23.261070251464844,25.267362594604492,95.56317329406738
1759159810.6646676,1759159810.717241,125.98538398742676,0.4298686981201172,0.08344650268554688,21.89159393310547,21.975040435791016,22.73702621459961,73.32611083984375
1759159810.7908795,1759159810.861273,98.68836402893066,0.354766845703125,0.07557868957519531,21.472692489624023,21.54827117919922,22.506237030029297,73.39096069335938
1759159810.8976038,1759159811.0075138,162.07289695739746,0.3845691680908203,0.0762939453125,20.897388458251953,20.973682403564453,22.046327590942383,95.72982788085938
1759159811.063974,1759159811.1328628,163.12432289123535,0.23031234741210938,0.08940696716308594,23.94390106201172,24.033308029174805,25.03061294555664,97.23210334777832
1759159811.2284281,1759159811.2804453,145.8890438079834,0.08559226989746094,0.0782012939453125,24.84607696533203,24.924278259277344,25.31909942626953,69.56601142883301
1759159811.3776248,1759159811.422593,134.50074195861816,0.06508827209472656,0.06198883056640625,23.355722427368164,23.41771125793457,23.734092712402344,68.93014907836914
1759159811.5145853,1759159811.5651863,142.46129989624023,0.07390975952148438,0.08249282836914062,24.731874465942383,24.814367294311523,25.207042694091797,70.54615020751953
1759159811.6571894,1759159811.7108543,103.41238975524902,1.0149478912353516,0.08511543273925781,21.37923240661621,21.46434783935547,23.258447647094727,75.44994354248047
1759159811.7607892,1759159811.8550425,127.21705436706543,0.3082752227783203,0.06270408630371094,21.091222763061523,21.153926849365234,21.85821533203125,72.14784622192383
1759159811.8881857,1759159811.9729607,137.0987892150879,0.3421306610107422,0.6144046783447266,23.02074432373047,23.635149002075195,24.823665618896484,73.11034202575684
1759159812.0286107,1759159812.115205,139.32204246520996,1.4500617980957031,0.07700920104980469,21.538496017456055,21.61550521850586,23.60081672668457,92.5898551940918
1759159812.1733887,1759159812.280165,157.1805477142334,0.27561187744140625,0.07152557373046875,20.775794982910156,20.847320556640625,21.634340286254883,93.22214126586914
1759159812.3349178,1759159812.3992796,149.01137351989746,1.3608932495117188,0.08440017700195312,23.85878562927246,23.943185806274414,27.26912498474121,96.82512283325195
1759159812.4905663,1759159812.596174,137.39442825317383,0.4687309265136719,0.0896453857421875,21.322965621948242,21.41261100769043,22.713422775268555,73.79460334777832
1759159812.6326444,1759159812.7431152,140.34223556518555,0.3178119659423828,0.0972747802734375,20.958423614501953,21.05569839477539,21.920442581176758,72.06273078918457
1759159812.7746735,1759159812.8875022,161.93866729736328,0.8637905120849609,0.0762939453125,21.159887313842773,21.236181259155273,23.946285247802734,75.34503936767578
1759159812.9368026,1759159813.0329008,126.19996070861816,0.41675567626953125,0.08511543273925781,23.06532859802246,23.15044403076172,24.173498153686523,76.25484466552734
1759159813.0675757,1759159813.1804373,163.10930252075195,0.5688667297363281,0.07796287536621094,22.320985794067383,22.398948669433594,23.412227630615234,76.1568546295166
1759159813.2345593,1759159813.3027167,141.94321632385254,0.06413459777832031,0.08463859558105469,26.544809341430664,26.62944793701172,27.10127830505371,73.71735572814941
1759159813.3802779,1759159813.4504342,142.6703929901123,0.07271766662597656,0.08344650268554688,26.304244995117188,26.387691497802734,26.836395263671875,74.24426078796387
1759159813.526687,1759159813.5979915,155.28202056884766,0.06270408630371094,0.08511543273925781,26.343584060668945,26.428699493408203,26.912689208984375,73.85921478271484
1759159813.686552,1759159813.794647,144.15597915649414,0.45990943908691406,0.08392333984375,21.439552307128906,21.523475646972656,22.733688354492188,74.28789138793945
1759159813.8308995,1759159813.920009,143.80669593811035,0.2357959747314453,0.0820159912109375,21.383285522460938,21.465301513671875,22.276639938354492,73.62842559814453
1759159813.980564,1759159814.0877163,161.53788566589355,0.3342628479003906,0.07176399230957031,20.811796188354492,20.883560180664062,21.75164222717285,95.14999389648438
1759159814.1426322,1759159814.2117171,162.75715827941895,0.22172927856445312,0.08273124694824219,23.35071563720703,23.433446884155273,25.237560272216797,95.1395034790039
1759159814.3112776,1759159814.357811,141.17026329040527,0.07224082946777344,0.08487701416015625,25.911808013916016,25.996685028076172,26.499271392822266,72.7224349975586
1759159814.4526806,1759159814.5052648,101.9735336303711,0.518798828125,0.08749961853027344,21.76952362060547,21.857023239135742,23.49710464477539,75.86407661437988
1759159814.5548515,1759159814.6493511,141.96038246154785,0.7638931274414062,0.0667572021484375,20.60556411743164,20.672321319580078,21.76380157470703,72.20816612243652
1759159814.6969361,1759159814.79121,143.85128021240234,0.4863739013671875,0.06961822509765625,21.158456802368164,21.22807502746582,22.20916748046875,72.58439064025879
1759159814.8409998,1759159814.9366612,127.93207168579102,0.33593177795410156,0.07081031799316406,20.933151245117188,21.00396156311035,21.970272064208984,72.82137870788574
1759159814.9731822,1759159815.0612583,157.3340892791748,0.3840923309326172,0.08130073547363281,21.465778350830078,21.54707908630371,22.47142791748047,73.25530052185059
1759159815.130705,1759159815.2037122,144.17648315429688,1.4510154724121094,0.062465667724609375,20.949363708496094,21.011829376220703,22.757530212402344,92.94676780700684
1759159815.2795627,1759159815.3480525,140.7458782196045,0.18787384033203125,0.06556510925292969,22.74942398071289,22.81498908996582,23.625850677490234,92.23341941833496
1759159815.4204972,1759159815.4884975,159.4865322113037,0.2155303955078125,0.06341934204101562,24.623632431030273,24.68705177307129,25.496721267700195,95.05081176757812
1759159815.5801773,1759159815.6295223,98.23846817016602,0.7929801940917969,0.06413459777832031,20.55048942565918,20.6146240234375,22.368907928466797,70.56689262390137
1759159815.6794114,1759159815.774601,129.22358512878418,0.3993511199951172,0.07009506225585938,21.820783615112305,21.890878677368164,23.035287857055664,75.20771026611328
1759159815.8135533,1759159815.9009123,140.46502113342285,0.2613067626953125,0.08654594421386719,21.762371063232422,21.84891700744629,22.814273834228516,74.6152400970459
1759159815.9665968,1759159816.0490732,132.32088088989258,0.19478797912597656,0.0762939453125,21.077871322631836,21.154165267944336,21.816492080688477,72.92723655700684
1759159816.111568,1759159816.2151165,158.3716869354248,0.25200843811035156,0.07271766662597656,22.5064754486084,22.579193115234375,23.173809051513672,74.47218894958496
1759159816.2705503,1759159816.362329,145.13278007507324,0.2815723419189453,0.08749961853027344,21.34251594543457,21.430015563964844,22.347211837768555,74.58353042602539
1759159816.4164586,1759159816.5065994,162.65368461608887,0.22363662719726562,0.09250640869140625,25.079965591430664,25.17247200012207,27.129411697387695,75.97875595092773
1759159816.5801246,1759159816.6533458,151.21936798095703,0.06222724914550781,0.09322166442871094,27.401208877563477,27.494430541992188,27.991294860839844,74.19419288635254
1759159816.7347496,1759159816.8020456,139.78815078735352,0.1361370086669922,0.08153915405273438,25.72178840637207,25.803327560424805,26.41010284423828,74.2335319519043
1759159816.8747573,1759159816.9497523,149.89924430847168,0.7493495941162109,0.09083747863769531,21.78168296813965,21.872520446777344,24.731159210205078,96.75979614257812
1759159817.0249016,1759159817.0988865,145.2920436859131,0.41866302490234375,0.0858306884765625,22.812604904174805,22.898435592651367,23.73218536376953,76.74169540405273
1759159817.170343,1759159817.2442582,125.67472457885742,2.25067138671875,0.08606910705566406,22.014379501342773,22.100448608398438,26.252031326293945,98.95443916320801
1759159817.2962162,1759159817.3912015,146.68560028076172,1.5451908111572266,0.07224082946777344,21.04640007019043,21.118640899658203,23.05316925048828,73.8828182220459
1759159817.4434958,1759159817.5126255,150.0680446624756,0.07581710815429688,0.08082389831542969,26.677846908569336,26.758670806884766,27.17113494873047,72.10683822631836
1759159817.5986428,1759159817.7088027,138.64469528198242,0.44989585876464844,0.08893013000488281,21.40665054321289,21.495580673217773,22.713661193847656,75.22034645080566
1759159817.7466247,1759159817.833893,158.3096981048584,0.22029876708984375,0.07772445678710938,21.227359771728516,21.305084228515625,21.988630294799805,72.95370101928711
1759159817.9094372,1759159817.9748333,156.52823448181152,0.20956993103027344,0.06556510925292969,22.83930778503418,22.90487289428711,24.56808090209961,91.68839454650879
1759159818.0718462,1759159818.1180186,136.95454597473145,0.07224082946777344,0.07939338684082031,24.03545379638672,24.11484718322754,24.57118034362793,70.35994529724121
1759159818.208942,1759159818.261406,103.39927673339844,0.8993148803710938,0.07987022399902344,22.022008895874023,22.101879119873047,25.196552276611328,76.77865028381348
1759159818.312593,1759159818.4097,147.8409767150879,1.7063617706298828,0.09322166442871094,21.515369415283203,21.608591079711914,23.793935775756836,76.42459869384766
1759159818.46661,1759159818.5559664,161.3454818725586,0.21600723266601562,0.08249282836914062,24.6884822845459,24.77097511291504,26.682376861572266,74.90110397338867
1759159818.629057,1759159818.6996765,140.8090591430664,0.08845329284667969,0.06794929504394531,26.064157485961914,26.13210678100586,26.47709846496582,91.37320518493652
1759159818.770028,1759159818.838962,120.3470230102539,0.39386749267578125,0.06914138793945312,22.99785614013672,23.066997528076172,25.515079498291016,93.3835506439209
1759159818.8905683,1759159818.9838178,142.60601997375488,0.3058910369873047,0.060558319091796875,20.799636840820312,20.86019515991211,21.556377410888672,92.56291389465332
1759159819.0383933,1759159819.125335,160.56275367736816,1.3682842254638672,0.062465667724609375,20.56288719177246,20.62535285949707,22.351980209350586,91.51029586791992
1759159819.2045455,1759159819.2917037,139.420747756958,1.5041828155517578,0.07581710815429688,21.32391929626465,21.399736404418945,23.51069450378418,95.17836570739746
1759159819.3497505,1759159819.4654293,143.2809829711914,0.34546852111816406,0.07271766662597656,21.55137062072754,21.624088287353516,22.674083709716797,75.25157928466797
1759159819.501611,1759159819.6138594,164.02339935302734,0.3204345703125,0.07510185241699219,21.146059036254883,21.221160888671875,22.095203399658203,72.84164428710938
1759159819.6658719,1759159819.7578704,119.94123458862305,0.4515647888183594,0.07534027099609375,21.268606185913086,21.34394645690918,22.845983505249023,72.44372367858887
1759159819.7905765,1759159819.8798933,137.17222213745117,0.22172927856445312,0.07724761962890625,21.25263214111328,21.329879760742188,22.091388702392578,73.15754890441895
1759159819.932696,1759159820.0265183,157.9592227935791,0.2300739288330078,0.07939338684082031,21.732807159423828,21.81220054626465,22.573471069335938,74.46074485778809
1759159820.0907888,1759159820.1766472,141.13497734069824,0.24008750915527344,0.08177757263183594,21.29364013671875,21.375417709350586,22.223234176635742,74.16296005249023
1759159820.2405958,1759159820.3459918,137.7277374267578,0.3864765167236328,0.08034706115722656,20.9043025970459,20.984649658203125,22.06587791442871,73.12369346618652
1759159820.3791022,1759159820.4714162,143.26095581054688,0.27561187744140625,0.08702278137207031,21.645784378051758,21.732807159423828,22.63045310974121,74.4330883026123
1759159820.5225306,1759159820.593063,146.16632461547852,0.06580352783203125,0.08940696716308594,26.354312896728516,26.4437198638916,26.914119720458984,74.32293891906738
1759159820.672608,1759159820.7401023,140.95401763916016,0.06461143493652344,0.08440017700195312,26.454448699951172,26.538848876953125,26.993751525878906,73.71997833251953
1759159820.81863,1759159820.8873274,140.0749683380127,0.06031990051269531,0.08869171142578125,26.42369270324707,26.51238441467285,26.917457580566406,72.80921936035156
1759159820.9589148,1759159821.0292761,123.12006950378418,0.48160552978515625,0.07700920104980469,22.51887321472168,22.595882415771484,25.490760803222656,94.76208686828613
1759159821.0821736,1759159821.1783938,153.83267402648926,0.4260540008544922,0.08034706115722656,21.109342575073242,21.18968963623047,22.350072860717773,96.7721939086914
1759159821.2415674,1759159821.3057458,141.36052131652832,0.3399848937988281,1.5287399291992188,21.74091339111328,23.2696533203125,24.535179138183594,96.60601615905762
1759159821.3831537,1759159821.4528604,141.52026176452637,0.38933753967285156,0.07605552673339844,22.43828773498535,22.51434326171875,23.69093894958496,94.96545791625977
1759159821.5252335,1759159821.5948334,142.08221435546875,0.17762184143066406,0.06699562072753906,22.52793312072754,22.594928741455078,23.35667610168457,92.88334846496582
1759159821.6706169,1759159821.7404172,143.721342086792,0.31065940856933594,1.2881755828857422,21.219730377197266,22.507905960083008,23.716449737548828,94.69413757324219
1759159821.8176477,1759159821.8863997,139.88327980041504,0.3063678741455078,0.08654594421386719,23.870468139648438,23.957014083862305,25.97808837890625,77.73399353027344
1759159821.957737,1759159822.0282476,122.87449836730957,0.5278587341308594,0.06270408630371094,22.363662719726562,22.426366806030273,23.672103881835938,72.01266288757324
1759159822.0807781,1759159822.1703835,139.6043300628662,1.51824951171875,0.06222724914550781,20.813465118408203,20.87569236755371,22.816181182861328,93.28055381774902
1759159822.2226567,1759159822.314514,140.1360034942627,0.3571510314941406,0.06389617919921875,20.870447158813477,20.934343338012695,22.060394287109375,71.16270065307617
1759159822.362956,1759159822.4555533,142.63010025024414,0.308990478515625,0.060558319091796875,20.50161361694336,20.562171936035156,21.270036697387695,92.36645698547363
1759159822.5099242,1759159822.5765002,153.87439727783203,0.3654956817626953,0.0782012939453125,24.884462356567383,24.962663650512695,26.08346939086914,95.65544128417969
1759159822.6639352,1759159822.7503283,136.0759735107422,0.2613067626953125,0.08058547973632812,21.5604305267334,21.641016006469727,22.58586883544922,75.7133960723877
1759159822.8086052,1759159822.9207456,165.3139591217041,0.31828880310058594,0.07128715515136719,20.79033851623535,20.86162567138672,21.62027359008789,94.68483924865723
1759159822.974481,1759159823.0408936,158.27417373657227,0.2162456512451172,0.07653236389160156,23.017406463623047,23.09393882751465,24.985551834106445,93.21022033691406
1759159823.1335065,1759159823.1862855,125.18787384033203,0.6730556488037109,0.08940696716308594,22.96900749206543,23.058414459228516,25.50053596496582,77.41951942443848
1759159823.2626379,1759159823.333886,146.05355262756348,0.2989768981933594,0.08344650268554688,23.56696128845215,23.650407791137695,24.558067321777344,76.31516456604004
1759159823.4090114,1759159823.4824514,143.22853088378906,0.4863739013671875,0.08749961853027344,21.370410919189453,21.457910537719727,22.803068161010742,76.42960548400879
1759159823.552475,1759159823.6259024,125.42223930358887,1.445770263671875,0.08821487426757812,23.617267608642578,23.705482482910156,26.008129119873047,78.21440696716309
1759159823.6780484,1759159823.7753747,150.4535675048828,1.0209083557128906,0.11301040649414062,22.248268127441406,22.361278533935547,24.40333366394043,98.89507293701172
1759159823.8287315,1759159823.925217,172.11198806762695,0.7588863372802734,0.08463859558105469,22.637605667114258,22.722244262695312,24.019718170166016,96.4517593383789
1759159824.0086021,1759159824.075854,150.82979202270508,0.8199214935302734,0.09655952453613281,24.981260299682617,25.07781982421875,27.744770050048828,119.13323402404785
1759159824.1655986,1759159824.2736514,139.3570899963379,0.4260540008544922,0.08320808410644531,21.338462829589844,21.42167091369629,22.535085678100586,74.50222969055176
1759159824.309601,1759159824.3993676,140.32888412475586,0.24366378784179688,0.08416175842285156,21.42500877380371,21.509170532226562,22.330522537231445,74.06258583068848
1759159824.4542851,1759159824.5462027,155.40623664855957,1.4014244079589844,0.08797645568847656,26.111602783203125,26.1995792388916,28.64217758178711,80.20544052124023
1759159824.609862,1759159824.7273157,148.3762264251709,0.3190040588378906,0.11014938354492188,24.129152297973633,24.239301681518555,25.042295455932617,59.000492095947266
1759159824.762605,1759159824.8848145,152.09317207336426,0.20933151245117188,0.0820159912109375,21.413087844848633,21.49510383605957,22.07493782043457,56.58674240112305
1759159824.9148707,1759159825.0053458,164.33238983154297,0.20170211791992188,0.09107589721679688,27.205467224121094,27.29654312133789,27.960538864135742,77.15415954589844
1759159825.079431,1759159825.153456,126.42931938171387,0.49567222595214844,0.08654594421386719,22.108793258666992,22.19533920288086,24.792909622192383,97.78833389282227
1759159825.209578,1759159825.303952,128.03149223327637,0.5033016204833984,0.09131431579589844,21.384716033935547,21.476030349731445,22.826671600341797,74.63836669921875
1759159825.3377764,1759159825.449871,142.20690727233887,0.54931640625,0.08392333984375,21.20184898376465,21.2857723236084,22.69744873046875,74.52154159545898
1759159825.4846108,1759159825.5709043,135.31851768493652,0.37479400634765625,0.07700920104980469,22.469043731689453,22.546052932739258,23.854732513427734,73.3180046081543
1759159825.6200767,1759159825.690618,153.58304977416992,0.08797645568847656,0.08392333984375,26.786327362060547,26.870250701904297,27.325153350830078,100.96526145935059
1759159825.778028,1759159825.8506503,144.23608779907227,0.07581710815429688,0.0820159912109375,26.315689086914062,26.397705078125,26.781082153320312,72.41559028625488
1759159825.9227028,1759159825.9970675,147.91107177734375,2.6373863220214844,0.07987022399902344,22.10092544555664,22.180795669555664,26.883363723754883,100.3873348236084
1759159826.0708244,1759159826.141912,120.31793594360352,1.4653205871582031,0.06318092346191406,21.12746238708496,21.190643310546875,24.096965789794922,93.97530555725098
1759159826.193961,1759159826.2844543,161.91840171813965,0.797271728515625,0.06914138793945312,23.9107608795166,23.979902267456055,26.324987411499023,74.68867301940918
1759159826.3560638,1759159826.4251294,118.39556694030762,0.3807544708251953,0.06175041198730469,21.117210388183594,21.1789608001709,23.459196090698242,91.46857261657715
1759159826.4785929,1759159826.5686145,115.93770980834961,0.2810955047607422,0.06008148193359375,20.28179168701172,20.341873168945312,21.09551429748535,69.65112686157227
1759159826.5986052,1759159826.662273,145.1132297515869,0.057697296142578125,0.06628036499023438,26.301860809326172,26.368141174316406,26.7941951751709,74.50485229492188
1759159826.747643,1759159826.8594048,139.73712921142578,0.4248619079589844,0.07987022399902344,21.15035057067871,21.230220794677734,22.337913513183594,73.42839241027832
1759159826.895618,1759159826.9856722,137.4526023864746,0.29349327087402344,0.0896453857421875,21.394968032836914,21.4846134185791,22.396087646484375,73.99582862854004
1759159827.0372245,1759159827.1047256,136.69371604919434,0.13518333435058594,0.07200241088867188,24.460315704345703,24.532318115234375,25.061845779418945,71.23875617980957
1759159827.1740508,1759159827.247357,145.16639709472656,0.4398822784423828,0.07700920104980469,22.181034088134766,22.25804328918457,24.548768997192383,96.27318382263184
1759159827.322626,1759159827.3928611,143.56017112731934,0.4277229309082031,0.08988380432128906,24.82008934020996,24.90997314453125,25.588512420654297,75.9429931640625
1759159827.4712477,1759159827.5406587,163.65599632263184,0.19121170043945312,0.08249282836914062,25.104522705078125,25.187015533447266,25.75373649597168,95.18289566040039
1759159827.6436336,1759159827.7355509,143.43523979187012,0.3654956817626953,0.07963180541992188,21.088123321533203,21.167755126953125,22.365093231201172,92.79704093933105
1759159827.795578,1759159827.8607228,142.8666114807129,0.20623207092285156,0.0820159912109375,21.745920181274414,21.82793617248535,22.5832462310791,94.04444694519043
1759159827.9406161,1759159828.052953,164.95943069458008,0.5342960357666016,0.08535385131835938,22.235631942749023,22.320985794067383,24.06024932861328,116.48726463317871
1759159828.1153023,1759159828.180907,170.71032524108887,1.6446113586425781,0.09441375732421875,21.271467208862305,21.365880966186523,23.51236343383789,115.70024490356445
1759159828.2905674,1759159828.350539,136.63983345031738,0.3294944763183594,0.07534027099609375,20.81775665283203,20.893096923828125,21.890640258789062,112.33162879943848
1759159828.4357333,1759159828.4965215,138.57340812683105,0.3838539123535156,0.08344650268554688,21.427154541015625,21.510601043701172,22.654056549072266,114.65144157409668
1759159828.583586,1759159828.6432211,154.82759475708008,0.8037090301513672,0.08511543273925781,21.606922149658203,21.69203758239746,22.93992042541504,116.87898635864258
