Timestamp,ArrivalTime,TotalTime(ms),WaitTime(ms),DecodeTime(ms),InferTime(ms),ServerComputeTime(ms),TotalServer(ms),Total
1759169809.7522926,1759169809.9898431,324.74756240844727,18.559932708740234,0.232696533203125,61.58781051635742,61.82050704956055,80.6131362915039,83.43315124511719
1759169810.0772202,1759169810.0811744,74.5401382446289,26.3822078704834,0.28204917907714844,31.97169303894043,32.25374221801758,58.82525444030762,59.825897216796875
1759169810.1518931,1759169810.1533103,64.84174728393555,23.67377281188965,0.3292560577392578,23.114681243896484,23.443937301635742,47.31440544128418,48.435211181640625
1759169810.216899,1759169810.2191885,74.38087463378906,5.129575729370117,0.32806396484375,51.53489112854004,51.86295509338379,57.206153869628906,58.56013298034668
1759169810.2914221,1759169810.2979367,69.21100616455078,0.7202625274658203,0.31495094299316406,53.30157279968262,53.61652374267578,54.69346046447754,56.6861629486084
1759169810.3607762,1759169810.362108,84.8391056060791,12.220382690429688,0.32782554626464844,55.48596382141113,55.81378936767578,68.2060718536377,69.15903091430664
1759169810.445776,1759169810.4511662,65.26446342468262,0.16355514526367188,0.3421306610107422,56.385040283203125,56.72717094421387,57.27791786193848,58.84075164794922
1759169810.5116274,1759169810.5232084,84.60831642150879,6.372928619384766,0.3154277801513672,55.3135871887207,55.62901496887207,62.21175193786621,63.28439712524414
1759169810.5972843,1759169810.5985923,81.6037654876709,7.373332977294922,0.2968311309814453,55.872440338134766,56.16927146911621,63.585519790649414,64.4223690032959
1759169810.679024,1759169810.6829891,67.21162796020508,0.5204677581787109,0.293731689453125,54.4431209564209,54.73685264587402,55.635690689086914,57.06501007080078
1759169810.7464364,1759169810.7555776,80.42168617248535,4.139900207519531,0.28777122497558594,57.75761604309082,58.045387268066406,62.5309944152832,64.7575855255127
1759169810.8270082,1759169810.8390372,74.0811824798584,0.02002716064453125,0.30350685119628906,52.027225494384766,52.330732345581055,52.76679992675781,54.50129508972168
1759169810.9018126,1759169810.9118106,74.15342330932617,0.2608299255371094,0.2944469451904297,55.70578575134277,56.0002326965332,56.5946102142334,58.3648681640625
1759169810.9761019,1759169810.9862418,77.84247398376465,3.3440589904785156,0.2994537353515625,59.357404708862305,59.65685844421387,63.28630447387695,64.86272811889648
1759169811.0551217,1759169811.0564406,90.12508392333984,13.005971908569336,0.3249645233154297,57.25526809692383,57.58023262023926,70.63078880310059,71.4867115020752
1759169811.1457057,1759169811.147254,73.03190231323242,1.1298656463623047,0.31948089599609375,55.02605438232422,55.34553527832031,56.82015419006348,58.52842330932617
1759169811.2189305,1759169811.2247024,67.15536117553711,0.020742416381835938,0.29349327087402344,54.93426322937012,55.22775650024414,55.643558502197266,57.381629943847656
1759169811.2891042,1759169811.298637,79.06436920166016,1.8029212951660156,0.3211498260498047,55.33289909362793,55.654048919677734,57.72805213928223,59.07440185546875
1759169811.3683589,1759169811.3766685,72.12996482849121,0.7638931274414062,0.2999305725097656,55.24182319641113,55.5417537689209,56.650638580322266,58.0592155456543
1759169811.4406333,1759169811.448769,81.24303817749023,5.253076553344727,0.29206275939941406,55.307626724243164,55.59968948364258,61.07020378112793,62.612056732177734
1759169811.522012,1759169811.529697,75.56581497192383,0.9975433349609375,0.2963542938232422,56.67471885681152,56.971073150634766,58.30502510070801,59.5858097076416
1759169811.5977156,1759169811.5990157,80.89637756347656,9.57942008972168,0.2944469451904297,56.5943717956543,56.88881874084473,66.6053295135498,67.54589080810547
1759169811.6787984,1759169811.686413,66.18905067443848,0.16069412231445312,0.2987384796142578,55.32431602478027,55.62305450439453,56.165456771850586,57.866811752319336
1759169811.7451296,1759169811.746493,89.68567848205566,17.07148551940918,0.29540061950683594,54.98647689819336,55.281877517700195,72.39651679992676,73.21524620056152
1759169811.8349545,1759169811.8362703,77.87203788757324,4.119634628295898,0.3142356872558594,57.07502365112305,57.389259338378906,61.9509220123291,63.45629692077637
1759169811.9132855,1759169811.9191566,70.06049156188965,1.0149478912353516,0.32067298889160156,52.27971076965332,52.60038375854492,53.95936965942383,55.26399612426758
1759169811.9835322,1759169811.9930449,69.34642791748047,0.1437664031982422,0.2994537353515625,56.105613708496094,56.405067443847656,56.92791938781738,58.77065658569336
1759169812.0540192,1759169812.0650113,83.18853378295898,5.053520202636719,0.2887248992919922,55.41825294494629,55.70697784423828,60.88709831237793,62.01028823852539
1759169812.1373422,1759169812.1462443,76.90930366516113,0.05626678466796875,0.3116130828857422,57.065486907958984,57.37709999084473,57.83796310424805,59.597015380859375
1759169812.2143934,1759169812.2226515,78.96280288696289,1.4791488647460938,0.30112266540527344,56.92601203918457,57.227134704589844,58.98761749267578,60.502052307128906
1759169812.2934911,1759169812.2981489,69.97227668762207,4.758596420288086,0.2951622009277344,54.607391357421875,54.90255355834961,59.93914604187012,61.83481216430664
1759169812.3636131,1759169812.374225,79.67805862426758,5.009651184082031,0.3154277801513672,54.93903160095215,55.254459381103516,60.479164123535156,61.522722244262695
1759169812.4434361,1759169812.4449534,83.4653377532959,9.806632995605469,0.30875205993652344,56.04100227355957,56.349754333496094,66.28751754760742,67.26956367492676
1759169812.526997,1759169812.5315144,74.5537281036377,0.9844303131103516,0.30493736267089844,55.291175842285156,55.596113204956055,56.92768096923828,58.27736854553223
1759169812.6016982,1759169812.6079347,69.31018829345703,0.6499290466308594,0.29349327087402344,55.85455894470215,56.14805221557617,57.14058876037598,59.096574783325195
1759169812.671206,1759169812.672479,89.22505378723145,13.64898681640625,0.29754638671875,56.07032775878906,56.36787414550781,70.14989852905273,71.05803489685059
1759169812.7605836,1759169812.7618885,72.45373725891113,1.9321441650390625,0.2925395965576172,59.12184715270996,59.41438674926758,61.69748306274414,63.010215759277344
1759169812.8331716,1759169812.84193,72.88479804992676,2.8870105743408203,0.3228187561035156,55.47022819519043,55.793046951293945,58.99405479431152,60.28342247009277
1759169812.9087183,1759169812.911117,80.99079132080078,9.994268417358398,0.30040740966796875,55.65953254699707,55.95993995666504,66.17474555969238,67.47794151306152
1759169812.9898448,1759169812.9935384,67.5966739654541,4.851579666137695,0.3311634063720703,54.96692657470703,55.2980899810791,60.395240783691406,61.809539794921875
1759169813.057552,1759169813.071218,79.37979698181152,3.2050609588623047,0.30922889709472656,55.20510673522949,55.51433563232422,58.96258354187012,60.51325798034668
1759169813.137068,1759169813.13837,87.33773231506348,13.078689575195312,0.31304359436035156,54.935455322265625,55.24849891662598,68.45402717590332,69.37742233276367
1759169813.2253664,1759169813.2279212,66.68257713317871,0.019073486328125,0.2980232238769531,55.34005165100098,55.63807487487793,56.07151985168457,57.570457458496094
1759169813.2927532,1759169813.294426,85.43610572814941,10.087966918945312,0.2968311309814453,56.681156158447266,56.97798728942871,67.24166870117188,68.18628311157227
1759169813.378384,1759169813.3824425,72.30925559997559,0.14829635620117188,0.29969215393066406,55.75442314147949,56.054115295410156,56.57696723937988,58.29763412475586
1759169813.4508324,1759169813.4553363,67.64721870422363,3.941774368286133,0.3120899200439453,55.4196834564209,55.731773376464844,59.884071350097656,61.681509017944336
1759169813.5190196,1759169813.532721,78.41134071350098,3.7276744842529297,0.31304359436035156,55.06491661071777,55.377960205078125,59.3867301940918,61.696529388427734
1759169813.5976284,1759169813.607907,78.81760597229004,4.704952239990234,0.29397010803222656,55.83477020263672,56.128740310668945,61.00273132324219,62.09421157836914
1759169813.6766002,1759169813.6879737,79.26297187805176,1.543283462524414,0.29540061950683594,55.59492111206055,55.89032173156738,57.755231857299805,59.10158157348633
1759169813.756001,1759169813.7633712,75.92010498046875,3.5216808319091797,0.2944469451904297,55.059194564819336,55.353641510009766,59.1583251953125,60.49919128417969
1759169813.832647,1759169813.8409555,75.11544227600098,2.5644302368164062,0.2970695495605469,56.32901191711426,56.626081466674805,59.50736999511719,60.9745979309082
1759169813.9079516,1759169813.917025,74.61404800415039,4.460334777832031,0.31447410583496094,56.267738342285156,56.58221244812012,61.290740966796875,62.467098236083984
1759169813.9890769,1759169813.996381,73.07720184326172,2.4445056915283203,0.30231475830078125,55.54699897766113,55.849313735961914,58.605194091796875,60.11795997619629
1759169814.0623462,1759169814.0636454,84.00678634643555,12.345075607299805,0.29349327087402344,54.65865135192871,54.952144622802734,67.42501258850098,68.36915016174316
1759169814.1465132,1759169814.148228,63.71474266052246,4.283666610717773,0.3032684326171875,54.628610610961914,54.9318790435791,59.435367584228516,60.61553955078125
1759169814.2103274,1759169814.2117112,76.02572441101074,10.70094108581543,0.08702278137207031,59.85617637634277,59.943199157714844,70.9238052368164,72.97396659851074
1759169814.2864983,1759169814.2878733,31.61311149597168,0.0209808349609375,0.2837181091308594,21.995067596435547,22.278785705566406,22.713184356689453,24.433135986328125
1759169814.318993,1759169814.3203003,83.86778831481934,11.051416397094727,0.2987384796142578,54.77714538574219,55.075883865356445,66.25723838806152,67.1834945678711
1759169814.403003,1759169814.4043617,65.64760208129883,3.7436485290527344,0.28824806213378906,55.72795867919922,56.01620674133301,60.03832817077637,61.36322021484375
1759169814.4702578,1759169814.4824588,74.82504844665527,2.4149417877197266,0.2989768981933594,55.59515953063965,55.89413642883301,58.551788330078125,60.03260612487793
1759169814.5452194,1759169814.5556955,76.78771018981934,6.427288055419922,0.2918243408203125,55.42469024658203,55.716514587402344,62.31522560119629,63.62271308898926
1759169814.6221,1759169814.6234102,89.3089771270752,15.337705612182617,0.29778480529785156,54.83412742614746,55.13191223144531,70.51610946655273,71.3193416595459
1759169814.7116272,1759169814.713322,75.52838325500488,1.1997222900390625,0.29540061950683594,55.95135688781738,56.24675750732422,57.79218673706055,59.41319465637207
1759169814.7872999,1759169814.7920086,67.43788719177246,0.1423358917236328,0.30303001403808594,54.63457107543945,54.93760108947754,55.45330047607422,57.01184272766113
1759169814.8548799,1759169814.8561833,82.15618133544922,11.155128479003906,0.3070831298828125,55.834293365478516,56.14137649536133,67.34967231750488,68.18771362304688
1759169814.93717,1759169814.9446056,70.7249641418457,0.0209808349609375,0.2949237823486328,58.3348274230957,58.629751205444336,59.14187431335449,60.94694137573242
1759169815.007988,1759169815.0093722,91.77494049072266,15.335798263549805,0.3371238708496094,56.74457550048828,57.08169937133789,72.45802879333496,73.3025074005127
1759169815.099906,1759169815.1028187,68.23325157165527,0.019550323486328125,0.2987384796142578,55.13310432434082,55.43184280395508,55.86528778076172,57.34395980834961
1759169815.1682377,1759169815.172508,81.65621757507324,7.4214935302734375,0.29015541076660156,54.718017578125,55.0081729888916,62.636375427246094,63.781023025512695
1759169815.2500353,1759169815.2513287,73.72260093688965,4.979610443115234,0.3104209899902344,54.82053756713867,55.130958557128906,60.32919883728027,61.32769584655762
1759169815.3244941,1759169815.3321087,66.32637977600098,0.2067089080810547,0.2956390380859375,55.390357971191406,55.685997009277344,56.27584457397461,58.043718338012695
1759169815.3913455,1759169815.4037364,78.08756828308105,4.985809326171875,0.2918243408203125,55.623531341552734,55.91535568237305,61.07330322265625,62.20388412475586
1759169815.4695807,1759169815.478449,84.88059043884277,6.897926330566406,0.2994537353515625,56.11705780029297,56.41651153564453,63.44294548034668,64.3610954284668
1759169815.5546048,1759169815.5615332,79.21791076660156,0.30112266540527344,0.2906322479248047,57.6624870300293,57.9531192779541,58.59684944152832,60.645341873168945
1759169815.633958,1759169815.6376204,66.16377830505371,3.610372543334961,0.308990478515625,54.79288101196289,55.101871490478516,59.02814865112305,60.97769737243652
1759169815.701678,1759169815.7143981,81.7725658416748,2.3763179779052734,0.29277801513671875,56.14042282104492,56.43320083618164,59.090614318847656,60.65940856933594
1759169815.7836022,1759169815.7912538,79.35261726379395,3.055572509765625,0.29850006103515625,54.67367172241211,54.972171783447266,58.344364166259766,59.9062442779541
1759169815.8630993,1759169815.8667197,66.54906272888184,3.1480789184570312,0.2925395965576172,55.078744888305664,55.37128448486328,58.69174003601074,59.67378616333008
1759169815.9334722,1759169815.9357884,83.85777473449707,9.655952453613281,0.3046989440917969,56.116342544555664,56.42104148864746,66.20335578918457,67.34037399291992
1759169816.0179114,1759169816.0228436,68.29524040222168,0.1590251922607422,0.3032684326171875,55.006980895996094,55.31024932861328,55.847883224487305,57.54661560058594
1759169816.0869093,1759169816.0882914,72.18146324157715,11.032581329345703,0.29921531677246094,56.43177032470703,56.73098564147949,67.93737411499023,68.97354125976562
1759169816.1592336,1759169816.1606464,88.37151527404785,16.885757446289062,0.2968311309814453,54.700613021850586,54.99744415283203,71.92826271057129,72.83878326416016
1759169816.247744,1759169816.2531233,73.65846633911133,0.019550323486328125,0.2913475036621094,55.89747428894043,56.18882179260254,56.620121002197266,58.28118324279785
1759169816.3215528,1759169816.3268075,74.71680641174316,3.5555362701416016,0.3044605255126953,56.359052658081055,56.66351318359375,60.50682067871094,62.032461166381836
1759169816.3978448,1759169816.3994696,83.01830291748047,8.285999298095703,0.3108978271484375,54.35609817504883,54.666996002197266,63.1709098815918,64.33248519897461
1759169816.4810045,1759169816.4835947,68.92704963684082,0.021696090698242188,0.3025531768798828,55.27067184448242,55.573225021362305,56.01000785827637,57.7397346496582
1759169816.5501268,1759169816.5596042,68.53771209716797,1.2440681457519531,0.31065940856933594,54.39043045043945,54.70108985900879,56.28609657287598,57.80982971191406
1759169816.618809,1759169816.6201413,89.45035934448242,16.590356826782227,0.2951622009277344,56.027889251708984,56.32305145263672,72.96109199523926,73.77743721008301
1759169816.7086926,1759169816.7136571,64.4230842590332,0.18978118896484375,0.2887248992919922,55.6330680847168,55.92179298400879,56.47921562194824,58.53724479675293
1759169816.7732568,1759169816.787631,88.60325813293457,3.1507015228271484,0.2956390380859375,55.2525520324707,55.54819107055664,58.95423889160156,63.08484077453613
1759169816.861996,1759169816.8663182,64.52560424804688,1.1556148529052734,0.3032684326171875,55.84001541137695,56.14328384399414,57.67226219177246,59.15117263793945
1759169816.9266639,1759169816.9367394,77.80742645263672,8.169412612915039,0.3020763397216797,55.03582954406738,55.33790588378906,63.680171966552734,64.80765342712402
1759169817.0046678,1759169817.0184062,81.68268203735352,2.7205944061279297,0.2918243408203125,55.15456199645996,55.44638633728027,58.444976806640625,60.22787094116211
1759169817.0865905,1759169817.0878832,71.5475082397461,9.969472885131836,0.29015541076660156,55.24015426635742,55.53030967712402,65.54222106933594,66.36285781860352
1759169817.1600006,1759169817.170741,82.89217948913574,3.997802734375,0.2911090850830078,56.165218353271484,56.45632743835449,60.70566177368164,62.154293060302734
1759169817.2430305,1759169817.2517228,67.59166717529297,0.15425682067871094,0.2932548522949219,55.83930015563965,56.13255500793457,56.662559509277344,58.499813079833984
1759169817.310766,1759169817.3222055,79.76818084716797,6.455183029174805,0.2930164337158203,55.73844909667969,56.03146553039551,62.61420249938965,64.03899192810059
1759169817.3972766,1759169817.4046764,73.34280014038086,0.04291534423828125,0.3056526184082031,56.342124938964844,56.64777755737305,57.10411071777344,58.75587463378906
1759169817.4708045,1759169817.4784029,77.45528221130371,4.027128219604492,0.3039836883544922,55.01198768615723,55.31597137451172,59.6156120300293,61.01846694946289
1759169817.5483968,1759169817.5555134,69.7472095489502,2.393007278442383,0.30112266540527344,56.38575553894043,56.6868782043457,59.29279327392578,60.34088134765625
1759169817.6190166,1759169817.6331408,77.16536521911621,1.3883113861083984,0.3025531768798828,57.030439376831055,57.33299255371094,58.99786949157715,60.57024002075195
1759169817.6967504,1759169817.7079477,81.52246475219727,5.356311798095703,0.30803680419921875,56.53548240661621,56.84351921081543,62.418222427368164,64.28313255310059
1759169817.778454,1759169817.7878587,73.28367233276367,3.3109188079833984,0.29277801513671875,55.52101135253906,55.81378936767578,59.3721866607666,60.64009666442871
1759169817.852448,1759169817.864336,74.45168495178223,2.6650428771972656,0.3006458282470703,56.48207664489746,56.78272247314453,59.662818908691406,61.31410598754883
1759169817.9270394,1759169817.937733,87.9065990447998,7.085084915161133,0.3139972686767578,55.941104888916016,56.25510215759277,63.508033752441406,64.89992141723633
1759169818.0150833,1759169818.0213645,69.87714767456055,0.5478858947753906,0.2894401550292969,55.47523498535156,55.76467514038086,56.68187141418457,58.2883358001709
1759169818.0850947,1759169818.0951896,84.10978317260742,3.541231155395508,0.2956390380859375,55.59945106506348,55.895090103149414,59.70931053161621,61.06162071228027
1759169818.1693892,1759169818.1706836,72.10350036621094,4.690647125244141,0.30350685119628906,55.498361587524414,55.8018684387207,60.6997013092041,61.705589294433594
1759169818.2416453,1759169818.2514038,71.11954689025879,0.018596649169921875,0.2963542938232422,57.404279708862305,57.70063400268555,58.12335014343262,59.696197509765625
1759169818.31378,1759169818.3262064,79.25271987915039,3.314971923828125,0.2989768981933594,57.20639228820801,57.50536918640137,61.05780601501465,62.496185302734375
1759169818.3952649,1759169818.40474,77.62670516967773,3.3164024353027344,0.2944469451904297,55.56631088256836,55.86075782775879,59.41343307495117,60.62746047973633
1759169818.4730275,1759169818.4817924,71.68292999267578,2.002716064453125,0.29158592224121094,56.018829345703125,56.310415267944336,58.65216255187988,60.37759780883789
1759169818.545339,1759169818.558452,78.62448692321777,1.3947486877441406,0.2932548522949219,57.07216262817383,57.36541748046875,59.035301208496094,60.23764610290527
1759169818.6241543,1759169818.6372106,77.38971710205078,0.3571510314941406,0.2887248992919922,55.89413642883301,56.182861328125,56.84614181518555,58.91108512878418
1759169818.7033558,1759169818.7737095,108.40606689453125,0.766754150390625,0.3104209899902344,22.17578887939453,22.486209869384766,23.521900177001953,28.36155891418457
1759169818.8119004,1759169818.817014,68.34626197814941,0.06461143493652344,0.29158592224121094,57.24596977233887,57.53755569458008,58.02464485168457,60.10746955871582
1759169818.8803859,1759169818.8816638,83.58120918273926,14.191150665283203,0.3104209899902344,56.1826229095459,56.49304389953613,70.72591781616211,71.54345512390137
1759169818.9641006,1759169818.9703689,71.6099739074707,2.2509098052978516,0.28824806213378906,57.8155517578125,58.10379981994629,60.9588623046875,62.822580337524414
1759169819.035846,1759169819.0373478,77.31938362121582,15.42043685913086,0.3108978271484375,52.35719680786133,52.668094635009766,68.13287734985352,69.06557083129883
1759169819.1136253,1759169819.1229625,74.97406005859375,2.7418136596679688,0.2970695495605469,55.62019348144531,55.91726303100586,58.931589126586914,60.448408126831055
1759169819.1927104,1759169819.2007172,68.01795959472656,1.2736320495605469,0.29277801513671875,55.58919906616211,55.88197708129883,57.462215423583984,58.605194091796875
1759169819.2608728,1759169819.2716353,79.1025161743164,7.133960723876953,0.2930164337158203,55.08255958557129,55.37557601928711,62.636613845825195,63.637495040893555
1759169819.3420238,1759169819.3536706,74.44405555725098,0.7169246673583984,0.3094673156738281,55.62257766723633,55.932044982910156,56.96582794189453,59.186697006225586
1759169819.4176111,1759169819.4300647,81.37226104736328,0.7097721099853516,0.29540061950683594,57.037353515625,57.332754135131836,58.35294723510742,60.327768325805664
1759169819.4991243,1759169819.5087,69.09298896789551,0.13685226440429688,0.2982616424560547,55.9384822845459,56.23674392700195,56.74123764038086,58.319091796875
1759169819.5683124,1759169819.569644,75.11186599731445,10.149240493774414,0.09107589721679688,59.838056564331055,59.92913246154785,70.33109664916992,72.09181785583496
1759169819.643582,1759169819.6449077,27.742385864257812,0.019073486328125,0.2772808074951172,22.57394790649414,22.851228713989258,23.264169692993164,24.776458740234375
1759169819.6731114,1759169819.685533,75.4544734954834,1.6520023345947266,0.2970695495605469,56.22529983520508,56.522369384765625,58.382511138916016,61.214447021484375
1759169819.7547195,1759169819.7605731,71.32983207702637,3.658771514892578,0.3037452697753906,55.356740951538086,55.66048622131348,59.55910682678223,60.81271171569824
1759169819.8265595,1759169819.8278472,85.14237403869629,13.169527053833008,0.29730796813964844,55.267333984375,55.56464195251465,68.8636302947998,69.78034973144531
1759169819.9121158,1759169819.9175618,67.27218627929688,0.19216537475585938,0.3104209899902344,55.23943901062012,55.54986000061035,56.121826171875,57.82914161682129
1759169819.9828763,1759169819.9850643,89.1275405883789,8.048295974731445,0.2899169921875,60.582637786865234,60.872554779052734,69.04792785644531,70.17636299133301
1759169820.073176,1759169820.0751116,68.35007667541504,0.019073486328125,0.3101825714111328,56.20002746582031,56.510210037231445,56.931495666503906,58.315277099609375
1759169820.1417973,1759169820.1509545,76.39861106872559,1.0609626770019531,0.3008842468261719,56.09631538391113,56.397199630737305,57.776689529418945,59.11612510681152
1759169820.2183385,1759169820.2881763,98.01292419433594,0.8234977722167969,0.2772808074951172,22.34959602355957,22.626876831054688,23.72431755065918,28.494834899902344
1759169820.3191166,1759169820.3303864,74.35441017150879,1.4519691467285156,0.2970695495605469,56.40244483947754,56.699514389038086,58.49099159240723,60.23144721984863
1759169820.3936143,1759169820.3949022,85.17217636108398,14.333009719848633,0.3154277801513672,55.29141426086426,55.606842041015625,70.07431983947754,70.99223136901855
1759169820.4789214,1759169820.4803455,66.33806228637695,5.4569244384765625,0.2903938293457031,55.642127990722656,55.93252182006836,61.630964279174805,62.99948692321777
1759169820.545404,1759169820.547187,80.05285263061523,15.387296676635742,0.29468536376953125,56.61892890930176,56.91361427307129,72.35264778137207,73.6539363861084
1759169820.6256084,1759169820.634173,76.73048973083496,6.244421005249023,0.30922889709472656,56.949615478515625,57.25884437561035,63.67754936218262,64.99576568603516
1759169820.7061946,1759169820.7079883,82.44633674621582,9.563446044921875,0.2961158752441406,56.68759346008301,56.98370933532715,66.67709350585938,67.61479377746582
1759169820.7887821,1759169820.7950335,70.39856910705566,0.1392364501953125,0.3018379211425781,55.30142784118652,55.6032657623291,56.11300468444824,57.79767036437988
1759169820.8598704,1759169820.86132,86.27581596374512,9.6435546875,0.29587745666503906,56.231021881103516,56.526899337768555,66.35046005249023,67.36183166503906
1759169820.946284,1759169820.948691,66.60890579223633,0.019311904907226562,0.29921531677246094,55.26304244995117,55.56225776672363,55.99474906921387,57.47175216674805
1759169821.015018,1759169821.0242884,71.43688201904297,0.23508071899414062,0.3020763397216797,55.90653419494629,56.20861053466797,56.7777156829834,58.358192443847656
1759169821.0874567,1759169821.0954444,83.22858810424805,5.95402717590332,0.29850006103515625,55.27853965759277,55.57703971862793,61.815500259399414,62.9124641418457
1759169821.170821,1759169821.2363057,99.38287734985352,2.088308334350586,0.2837181091308594,22.992610931396484,23.276329040527344,25.644540786743164,29.15668487548828
1759169821.2705991,1759169821.2729151,77.26573944091797,9.227275848388672,0.29969215393066406,56.528329849243164,56.82802200317383,66.18356704711914,67.33441352844238
1759169821.3480482,1759169821.3560097,73.31299781799316,3.452777862548828,0.3368854522705078,56.09846115112305,56.435346603393555,60.19425392150879,61.34510040283203
1759169821.4214978,1759169821.4227648,85.75057983398438,14.078855514526367,0.2875328063964844,55.33123016357422,55.6187629699707,69.7479248046875,70.55807113647461
1759169821.5076613,1759169821.5132189,65.03462791442871,0.14901161193847656,0.30159950256347656,55.733680725097656,56.03528022766113,56.55980110168457,58.19344520568848
1759169821.572813,1759169821.5741327,90.04378318786621,16.07656478881836,0.2982616424560547,55.559635162353516,55.85789680480957,71.98143005371094,72.79181480407715
1759169821.6647844,1759169821.666622,72.81684875488281,0.03838539123535156,0.29659271240234375,55.40013313293457,55.696725845336914,56.14924430847168,57.671546936035156
1759169821.738735,1759169821.7435577,68.07518005371094,0.020742416381835938,0.29277801513671875,55.710792541503906,56.003570556640625,56.43439292907715,58.17270278930664
1759169821.809045,1759169821.8102999,81.01606369018555,10.368824005126953,0.3085136413574219,59.415578842163086,59.72409248352051,70.30296325683594,71.26688957214355
1759169821.890193,1759169821.8986216,73.89092445373535,2.7163028717041016,0.3032684326171875,55.78422546386719,56.087493896484375,59.11135673522949,60.472726821899414
1759169821.9670448,1759169822.0358615,98.73557090759277,2.050638198852539,0.2758502960205078,22.369384765625,22.645235061645508,24.895191192626953,28.37061882019043
1759169822.0729144,1759169822.0787268,69.65923309326172,1.7857551574707031,0.29277801513671875,56.17547035217285,56.46824836730957,58.52389335632324,59.86785888671875
1759169822.1427083,1759169822.1534584,82.14211463928223,3.820180892944336,0.31280517578125,56.171417236328125,56.484222412109375,60.546159744262695,63.782691955566406
1759169822.225128,1759169822.233214,67.82197952270508,1.5304088592529297,0.2887248992919922,54.84175682067871,55.1304817199707,57.00802803039551,58.737754821777344
1759169822.2934544,1759169822.3052828,84.93566513061523,5.6705474853515625,0.2951622009277344,55.10258674621582,55.397748947143555,61.281681060791016,63.23409080505371
1759169822.3785422,1759169822.3830585,70.27745246887207,3.8487911224365234,0.2989768981933594,56.087493896484375,56.386470794677734,60.488224029541016,61.79547309875488
1759169822.4489546,1759169822.4502301,89.52689170837402,13.796329498291016,0.29730796813964844,56.46491050720215,56.7622184753418,70.6017017364502,71.38824462890625
1759169822.5386298,1759169822.5416775,61.815738677978516,0.020265579223632812,0.2903938293457031,54.860830307006836,55.15122413635254,55.576324462890625,57.30390548706055
1759169822.6041481,1759169822.6149526,79.32233810424805,1.7910003662109375,0.2913475036621094,56.59341812133789,56.884765625,58.88056755065918,60.47821044921875
1759169822.683675,1759169822.6923137,77.71635055541992,1.4128684997558594,0.3120899200439453,55.77445030212402,56.08654022216797,57.84177780151367,59.75675582885742
1759169822.7615342,1759169822.7683587,70.86682319641113,0.22912025451660156,0.3123283386230469,57.83724784851074,58.14957618713379,58.71248245239258,60.70733070373535
1759169822.8358827,1759169822.8459826,81.85291290283203,0.4341602325439453,0.30422210693359375,56.95533752441406,57.259559631347656,58.00294876098633,61.84124946594238
1759169822.918389,1759169822.9232204,71.04086875915527,0.5602836608886719,0.3032684326171875,56.00929260253906,56.31256103515625,57.23714828491211,59.41510200500488
1759169822.9901109,1759169822.9914994,86.91096305847168,9.403705596923828,0.2980232238769531,56.82492256164551,57.12294578552246,66.73550605773926,67.83437728881836
1759169823.0771601,1759169823.079167,62.13998794555664,0.019073486328125,0.30112266540527344,56.250572204589844,56.55169486999512,56.96511268615723,58.24398994445801
1759169823.1408527,1759169823.142148,154.66690063476562,115.6771183013916,0.29158592224121094,24.31344985961914,24.60503578186035,140.38419723510742,141.27087593078613
1759169823.295689,1759169823.300211,47.61791229248047,0.13017654418945312,0.3218650817871094,39.646148681640625,39.968013763427734,40.48299789428711,41.92328453063965
1759169823.3443818,1759169823.3593438,79.52332496643066,3.5293102264404297,0.301361083984375,53.641319274902344,53.94268035888672,57.715415954589844,58.93826484680176
1759169823.4240432,1759169823.4253464,87.89300918579102,13.485908508300781,0.29850006103515625,54.42380905151367,54.72230911254883,68.25375556945801,69.08249855041504
1759169823.5129223,1759169823.5148597,66.96796417236328,0.016927719116210938,0.30517578125,55.12666702270508,55.43184280395508,55.856943130493164,57.27863311767578
1759169823.580029,1759169823.5813098,81.69317245483398,9.511947631835938,0.2989768981933594,56.035757064819336,56.334733963012695,65.88959693908691,66.71857833862305
1759169823.6624315,1759169823.6683176,73.60529899597168,0.018358230590820312,0.3025531768798828,54.97574806213379,55.27830123901367,55.693626403808594,57.3117733001709
1759169823.7361743,1759169823.7410305,70.9238052368164,3.1023025512695312,0.29349327087402344,56.023597717285156,56.31709098815918,59.66472625732422,61.247825622558594
1759169823.8076022,1759169823.81875,82.34953880310059,2.0105838775634766,0.29540061950683594,55.59420585632324,55.88960647583008,58.139801025390625,59.51428413391113
1759169823.8904476,1759169823.8917427,76.92599296569824,5.014896392822266,0.2963542938232422,56.052207946777344,56.348562240600586,61.487674713134766,62.40487098693848
1759169823.967586,1759169823.969212,77.63385772705078,3.8192272186279297,0.3058910369873047,56.024789810180664,56.33068084716797,60.27555465698242,61.283111572265625
1759169824.0453582,1759169824.0494375,64.65721130371094,0.017881393432617188,0.31065940856933594,55.97686767578125,56.287527084350586,56.70332908630371,58.150529861450195
1759169824.1101534,1759169824.118602,82.81731605529785,8.365154266357422,0.2923011779785156,55.41801452636719,55.7103157043457,64.19873237609863,65.44876098632812
1759169824.1931584,1759169824.194439,77.99983024597168,8.949995040893555,0.32258033752441406,55.11474609375,55.437326431274414,64.56327438354492,65.61517715454102
1759169824.271342,1759169824.280226,67.17443466186523,0.02002716064453125,0.37384033203125,54.36968803405762,54.74352836608887,55.15646934509277,57.08885192871094
1759169824.3386588,1759169824.350007,82.0004940032959,5.658388137817383,0.2944469451904297,55.2365779876709,55.53102493286133,61.38944625854492,62.54744529724121
1759169824.4211502,1759169824.422878,81.16960525512695,9.271383285522461,0.2961158752441406,55.28569221496582,55.58180809020996,64.97788429260254,65.92178344726562
1759169824.5024157,1759169824.5079424,66.30086898803711,0.019311904907226562,0.2994537353515625,56.31065368652344,56.610107421875,57.02924728393555,58.692216873168945
1759169824.5692408,1759169824.5705543,88.79542350769043,14.211416244506836,0.2942085266113281,55.69744110107422,55.99164962768555,70.24288177490234,71.03133201599121
1759169824.6593382,1759169824.661145,68.60089302062988,0.03886222839355469,0.2923011779785156,56.2441349029541,56.53643608093262,56.97989463806152,58.405160903930664
1759169824.7281258,1759169824.7358694,72.42536544799805,2.5391578674316406,0.30517578125,55.69720268249512,56.00237846374512,58.88032913208008,60.34588813781738
1759169824.8006926,1759169824.8131723,74.7222900390625,1.2385845184326172,0.30517578125,55.88245391845703,56.18762969970703,57.72733688354492,59.537410736083984
1759169824.877275,1759169824.8785377,85.52217483520508,12.419462203979492,0.2913475036621094,55.528879165649414,55.82022666931152,68.2833194732666,69.07010078430176
1759169824.965377,1759169824.9667814,74.03707504272461,0.5183219909667969,0.2989768981933594,55.86886405944824,56.1678409576416,57.0673942565918,58.635711669921875
1759169825.0395596,1759169825.0413475,74.0962028503418,2.1810531616210938,0.29659271240234375,55.806636810302734,56.10322952270508,58.52150917053223,59.78679656982422
1759169825.1137915,1759169825.119725,67.9328441619873,0.14638900756835938,0.2949237823486328,56.572914123535156,56.86783790588379,57.38234519958496,59.207916259765625
1759169825.1857495,1759169825.1880944,86.22002601623535,9.050369262695312,0.29659271240234375,55.71103096008301,56.00762367248535,65.1853084564209,66.29419326782227
1759169825.2721121,1759169825.2741258,61.165809631347656,0.019788742065429688,0.2925395965576172,54.74567413330078,55.0382137298584,55.463552474975586,56.88309669494629
1759169825.3393016,1759169825.3487406,77.41641998291016,0.6117820739746094,0.3008842468261719,55.96780776977539,56.26869201660156,57.21139907836914,59.08799171447754
1759169825.4168603,1759169825.4254744,73.56047630310059,1.010894775390625,0.30112266540527344,55.533409118652344,55.83453178405762,57.192325592041016,58.53271484375
1759169825.4905622,1759169825.5008085,71.00605964660645,2.0346641540527344,0.2932548522949219,55.55081367492676,55.84406852722168,58.17723274230957,59.62729454040527
1759169825.5616646,1759169825.5728714,83.0998420715332,6.446599960327148,0.3020763397216797,55.88960647583008,56.19168281555176,62.81304359436035,64.76354598999023
1759169825.6449003,1759169825.646159,71.17342948913574,10.182857513427734,0.3037452697753906,55.72628974914551,56.0300350189209,66.25747680664062,67.0475959777832
1759169825.7173977,1759169825.718691,84.18011665344238,14.543771743774414,0.3020763397216797,55.054426193237305,55.356502532958984,69.94509696960449,70.74999809265137
1759169825.8020186,1759169825.8092012,67.01183319091797,0.5214214324951172,0.2887248992919922,54.781436920166016,55.07016181945801,55.95874786376953,57.48105049133301
1759169825.8714178,1759169825.8727136,84.65695381164551,12.665271759033203,0.30875205993652344,55.83596229553223,56.14471435546875,68.9382553100586,69.79179382324219
1759169825.9572651,1759169825.9622233,67.49343872070312,0.018835067749023438,0.30422210693359375,55.281639099121094,55.58586120605469,56.01143836975098,58.191776275634766
1759169826.0253265,1759169826.0366254,74.82171058654785,2.0580291748046875,0.2903938293457031,54.955244064331055,55.24563789367676,57.60622024536133,59.19218063354492
1759169826.100314,1759169826.111722,81.03823661804199,2.972126007080078,0.2942085266113281,55.388689041137695,55.68289756774902,58.93516540527344,60.150146484375
1759169826.1815543,1759169826.1902826,71.57564163208008,0.6303787231445312,0.2923011779785156,55.330514907836914,55.62281608581543,56.5953254699707,58.40897560119629
1759169826.2562804,1759169826.2666793,69.3349838256836,0.5064010620117188,0.3001689910888672,55.23824691772461,55.53841590881348,56.41293525695801,57.74092674255371
1759169826.3298066,1759169826.3398802,80.6429386138916,3.1888484954833984,0.2911090850830078,55.764198303222656,56.055307388305664,59.48519706726074,60.750484466552734
1759169826.410593,1759169826.418287,68.40372085571289,0.8282661437988281,0.29587745666503906,56.424617767333984,56.72049522399902,57.88731575012207,60.09316444396973
1759169826.4821808,1759169826.4834588,83.8460922241211,12.701272964477539,0.28705596923828125,56.218624114990234,56.505680084228516,69.25177574157715,70.05500793457031
1759169826.566161,1759169826.573032,67.4433708190918,0.5979537963867188,0.29397010803222656,54.91948127746582,55.21345138549805,56.177616119384766,57.686567306518555
1759169826.6341066,1759169826.635375,89.8900032043457,14.417171478271484,0.30112266540527344,55.52220344543457,55.823326110839844,70.36852836608887,71.31195068359375
1759169826.7241383,1759169826.7263954,61.29813194274902,0.04172325134277344,0.32258033752441406,55.234670639038086,55.5572509765625,56.00118637084961,57.73520469665527
1759169826.78554,1759169826.7934175,85.38603782653809,9.594440460205078,0.28967857360839844,55.50360679626465,55.79328536987305,65.51241874694824,68.13359260559082
1759169826.8710647,1759169826.879606,71.17033004760742,0.018835067749023438,0.3006458282470703,55.593013763427734,55.893659591674805,56.314706802368164,58.23397636413574
1759169826.9439282,1759169826.953011,72.20125198364258,3.414630889892578,0.2999305725097656,54.98242378234863,55.2823543548584,58.96806716918945,60.34207344055176
1759169827.0162659,1759169827.028433,85.07323265075684,4.1637420654296875,0.29540061950683594,55.04322052001953,55.33862113952637,59.7081184387207,61.209917068481445
1759169827.101473,1759169827.1080604,67.89374351501465,0.6172657012939453,0.29349327087402344,55.65762519836426,55.95111846923828,56.906938552856445,58.602094650268555
1759169827.1695595,1759169827.170827,85.61587333679199,14.019966125488281,0.29158592224121094,55.63664436340332,55.92823028564453,70.07479667663574,70.91355323791504
1759169827.25913,1759169827.26109,64.84150886535645,0.020503997802734375,0.2961158752441406,56.53214454650879,56.82826042175293,57.2512149810791,58.93659591674805
1759169827.3265195,1759169827.3288891,81.38418197631836,9.533405303955078,0.3018379211425781,55.67288398742676,55.974721908569336,65.63854217529297,66.7717456817627
1759169827.4107444,1759169827.4125903,65.2155876159668,2.564668655395508,0.29397010803222656,55.23371696472168,55.527687072753906,58.43758583068848,60.17184257507324
1759169827.4801786,1759169827.4824727,71.31028175354004,8.405923843383789,0.29206275939941406,56.025028228759766,56.31709098815918,64.89300727844238,66.1003589630127
1759169827.5516386,1759169827.5609317,78.48143577575684,7.028818130493164,0.29754638671875,55.49788475036621,55.79543113708496,62.950849533081055,63.91263008117676
1759169827.6302354,1759169827.6315203,87.97979354858398,12.131214141845703,0.29921531677246094,56.504011154174805,56.803226470947266,68.97783279418945,69.78058815002441
1759169827.7192824,1759169827.7211924,68.42803955078125,0.016450881958007812,0.3147125244140625,55.80759048461914,56.1223030090332,56.551456451416016,58.35461616516113
1759169827.7878911,1759169827.7932668,78.2470703125,4.991054534912109,0.2982616424560547,55.6492805480957,55.94754219055176,61.105966567993164,62.117815017700195
1759169827.8669224,1759169827.868444,80.04212379455566,6.73222541809082,0.29087066650390625,55.26256561279297,55.553436279296875,62.456369400024414,63.654184341430664
1759169827.947103,1759169827.9511266,68.99094581604004,0.015497207641601562,0.29158592224121094,55.459022521972656,55.75060844421387,56.17022514343262,57.57641792297363
1759169828.0162315,1759169828.023492,80.50942420959473,4.431962966918945,0.29349327087402344,55.26256561279297,55.55605888366699,60.26911735534668,61.46979331970215
1759169828.0968778,1759169828.102876,71.79784774780273,0.9973049163818359,0.2982616424560547,55.87625503540039,56.174516677856445,57.50727653503418,58.99453163146973
1759169828.169395,1759169828.1776962,78.26399803161621,3.135204315185547,0.2899169921875,55.41801452636719,55.70793151855469,59.12470817565918,60.370445251464844
1759169828.2477906,1759169828.2554874,72.00098037719727,1.8360614776611328,0.30493736267089844,55.99069595336914,56.29563331604004,58.43377113342285,59.80515480041504
1759169828.3199797,1759169828.3299367,82.91053771972656,4.724979400634766,0.29540061950683594,54.79717254638672,55.092573165893555,60.06169319152832,61.26093864440918
1759169828.403026,1759169828.4089072,70.63531875610352,0.9758472442626953,0.2989768981933594,56.145668029785156,56.444644927978516,57.760000228881836,59.26918983459473
1759169828.4738529,1759169828.4841993,73.86112213134766,2.5866031646728516,0.3046989440917969,55.89485168457031,56.19955062866211,59.058427810668945,60.46271324157715
1759169828.5487413,1759169828.5606935,73.98414611816406,2.953052520751953,0.2932548522949219,55.72795867919922,56.02121353149414,59.241294860839844,60.55760383605957
1759169828.6228673,1759169828.629505,84.77282524108887,11.022090911865234,0.29778480529785156,55.88674545288086,56.18453025817871,67.25764274597168,68.33148002624512
1759169828.7086158,1759169828.7169275,68.03512573242188,0.061511993408203125,0.2932548522949219,55.71317672729492,56.006431579589844,56.46777153015137,58.08615684509277
1759169828.7788744,1759169828.7801566,84.4581127166748,13.383626937866211,0.28967857360839844,55.31597137451172,55.60564994812012,69.0312385559082,69.84114646911621
1759169828.8640077,1759169828.8658123,79.0252685546875,4.457950592041016,0.3132820129394531,55.06110191345215,55.3743839263916,60.03594398498535,61.39540672302246
1759169828.944662,1759169828.9461842,73.1050968170166,0.01621246337890625,0.2980232238769531,55.29499053955078,55.593013763427734,56.01668357849121,57.524681091308594
1759169829.0179098,1759169829.0217428,67.23523139953613,0.04124641418457031,0.2942085266113281,56.180715560913086,56.474924087524414,56.92434310913086,58.55417251586914
1759169829.0852835,1759169829.0865545,83.05215835571289,12.642383575439453,0.3097057342529297,55.5262565612793,55.83596229553223,68.52364540100098,69.35000419616699
1759169829.1688297,1759169829.1765642,74.18632507324219,0.6985664367675781,0.31256675720214844,54.15058135986328,54.46314811706543,55.49931526184082,57.72900581359863
1759169829.2432117,1759169829.252152,70.76501846313477,0.019788742065429688,0.3063678741455078,55.297136306762695,55.6035041809082,56.02669715881348,57.703256607055664
1759169829.3160274,1759169829.327824,76.51281356811523,1.2350082397460938,0.301361083984375,54.95023727416992,55.2515983581543,56.82373046875,58.32195281982422
1759169829.3928144,1759169829.4012444,81.8321704864502,3.9262771606445312,0.3020763397216797,55.07612228393555,55.37819862365723,59.54933166503906,60.820817947387695
1759169829.4747956,1759169829.4803612,65.39463996887207,0.13637542724609375,0.31256675720214844,56.392669677734375,56.70523643493652,57.22784996032715,58.988094329833984
1759169829.5403323,1759169829.551552,84.14459228515625,6.70933723449707,0.30732154846191406,55.27448654174805,55.58180809020996,62.46471405029297,63.58051300048828
1759169829.6247509,1759169829.6308918,77.36945152282715,3.663778305053711,0.2989768981933594,55.867910385131836,56.166887283325195,60.06979942321777,61.79547309875488
1759169829.7022572,1759169829.709014,67.88372993469238,2.315998077392578,0.30684471130371094,53.56788635253906,53.87473106384277,56.536197662353516,57.898759841918945
1759169829.7754111,1759169829.7836359,70.9984302520752,0.3352165222167969,0.2956390380859375,58.324337005615234,58.61997604370117,59.25583839416504,61.31124496459961
1759169829.8468664,1759169829.8597972,77.60047912597656,2.5136470794677734,0.3025531768798828,56.14519119262695,56.447744369506836,59.16929244995117,60.3334903717041
1759169829.9246101,1759169829.936293,75.5307674407959,3.6149024963378906,0.2951622009277344,55.40800094604492,55.703163146972656,59.59057807922363,61.994075775146484
1759169830.0022662,1759169830.0140972,79.89263534545898,1.7552375793457031,0.3120899200439453,56.182146072387695,56.49423599243164,58.53128433227539,59.70144271850586
1759169830.0823457,1759169830.0904002,79.47897911071777,3.0226707458496094,0.3063678741455078,55.100202560424805,55.40657043457031,58.73370170593262,60.34588813781738
1759169830.163576,1759169830.1651819,73.30060005187988,4.401683807373047,0.29921531677246094,55.87482452392578,56.17403984069824,60.88399887084961,62.403202056884766
1759169830.2370148,1759169830.305533,95.45564651489258,0.7853507995605469,0.28705596923828125,22.22299575805664,22.510051727294922,23.575305938720703,28.383970260620117
1759169830.3335054,1759169830.3453772,74.46169853210449,3.8919448852539062,0.30541419982910156,55.561065673828125,55.86647987365723,60.004234313964844,61.19394302368164
1759169830.4081626,1759169830.4177268,79.59127426147461,8.163690567016602,0.293731689453125,55.81021308898926,56.10394477844238,64.39685821533203,65.50812721252441
1759169830.4898152,1759169830.4921613,81.46786689758301,9.856224060058594,0.29659271240234375,56.12659454345703,56.423187255859375,66.41244888305664,67.5206184387207
1759169830.5719655,1759169830.5789945,68.5720443725586,0.7059574127197266,0.29587745666503906,55.30524253845215,55.60111999511719,56.65850639343262,58.96353721618652
1759169830.6416225,1759169830.642897,74.71227645874023,12.795686721801758,0.2989768981933594,56.1215877532959,56.42056465148926,69.25725936889648,70.05572319030762
1759169830.716473,1759169830.7251794,83.94312858581543,7.820844650268555,0.29730796813964844,55.0382137298584,55.33552169799805,63.28630447387695,64.6054744720459
1759169830.8005679,1759169830.8078027,69.1995620727539,1.0547637939453125,0.29659271240234375,57.602882385253906,57.89947509765625,59.34023857116699,60.858964920043945
1759169830.8699694,1759169830.8713844,91.34030342102051,16.721010208129883,0.339508056640625,54.1386604309082,54.47816848754883,71.24662399291992,72.0980167388916
1759169830.9614537,1759169830.963591,60.41431427001953,0.019550323486328125,0.3032684326171875,54.963111877441406,55.266380310058594,55.6941032409668,57.14750289916992
1759169831.0219662,1759169831.0272534,85.39533615112305,12.156009674072266,0.301361083984375,55.46736717224121,55.768728256225586,67.96693801879883,68.77875328063965
1759169831.108375,1759169831.110983,67.76928901672363,4.464626312255859,0.3066062927246094,56.14304542541504,56.44965171813965,61.12313270568848,62.233924865722656
1759169831.176283,1759169831.1861851,77.16965675354004,6.7043304443359375,0.30803680419921875,55.23109436035156,55.53913116455078,62.4239444732666,63.495635986328125
1759169831.2578595,1759169831.2660584,72.7839469909668,2.8874874114990234,0.30303001403808594,56.044578552246094,56.34760856628418,59.48162078857422,60.82296371459961
1759169831.3308291,1759169831.344059,76.48682594299316,2.298593521118164,0.3046989440917969,55.27544021606445,55.58013916015625,58.22110176086426,59.75151062011719
1759169831.4075234,1759169831.4088087,83.16731452941895,14.092206954956055,0.3085136413574219,55.4506778717041,55.75919151306152,69.97418403625488,70.88971138000488
1759169831.4908752,1759169831.4957604,71.19154930114746,3.7119388580322266,0.29730796813964844,55.857181549072266,56.154489517211914,60.13941764831543,61.62428855895996
1759169831.5622554,1759169831.563538,88.37628364562988,13.09823989868164,0.301361083984375,55.46092987060547,55.762290954589844,68.99523735046387,69.90480422973633
1759169831.6512961,1759169831.6532724,64.76545333862305,0.018596649169921875,0.31447410583496094,55.068254470825195,55.382728576660156,55.81212043762207,57.1131706237793
1759169831.7162018,1759169831.728325,77.96883583068848,0.7321834564208984,0.2989768981933594,56.084632873535156,56.383609771728516,57.425498962402344,59.21149253845215
1759169831.7943096,1759169831.7956152,85.63017845153809,10.781049728393555,0.30040740966796875,55.35578727722168,55.65619468688965,66.56455993652344,67.45076179504395
1759169831.8800824,1759169831.8814125,73.84777069091797,1.2307167053222656,0.2961158752441406,55.30238151550293,55.59849739074707,57.18517303466797,58.66885185241699
1759169831.9540641,1759169831.9587302,69.11468505859375,0.0553131103515625,0.29158592224121094,55.988311767578125,56.279897689819336,56.73789978027344,58.469295501708984
1759169832.0233183,1759169832.0315297,80.77621459960938,4.443883895874023,0.29158592224121094,55.759429931640625,56.051015853881836,60.76812744140625,62.13545799255371
1759169832.1042364,1759169832.1108217,67.18659400939941,5.099058151245117,0.29587745666503906,52.193403244018555,52.489280700683594,57.904720306396484,59.432268142700195
1759169832.1715791,1759169832.1810036,80.79314231872559,8.41069221496582,0.3027915954589844,54.94952201843262,55.2523136138916,63.791513442993164,64.72444534301758
1759169832.253052,1759169832.2544863,86.35973930358887,10.899066925048828,0.3032684326171875,55.411338806152344,55.71460723876953,66.78628921508789,67.71206855773926
1759169832.339619,1759169832.341874,64.45908546447754,0.04124641418457031,0.2913475036621094,55.771589279174805,56.062936782836914,56.52189254760742,58.103084564208984
1759169832.4042122,1759169832.4122956,75.44183731079102,6.913900375366211,0.31304359436035156,55.264949798583984,55.577993392944336,62.659502029418945,63.704490661621094
1759169832.4831436,1759169832.4854715,80.83534240722656,9.838342666625977,0.30684471130371094,55.79113960266113,56.097984313964844,66.070556640625,67.1844482421875
1759169832.5640733,1759169832.56559,82.32259750366211,6.8683624267578125,0.3039836883544922,55.81402778625488,56.118011474609375,63.18974494934082,64.34988975524902
1759169832.6478224,1759169832.6491454,61.83147430419922,0.02002716064453125,0.32401084899902344,55.83453178405762,56.15854263305664,56.59151077270508,58.05206298828125
1759169832.7098174,1759169832.720249,84.24997329711914,5.506992340087891,0.30684471130371094,54.98623847961426,55.29308319091797,60.968637466430664,62.18409538269043
1759169832.7942066,1759169832.802081,67.22617149353027,0.019311904907226562,0.3104209899902344,54.80599403381348,55.11641502380371,55.54509162902832,56.9915771484375
1759169832.864001,1759169832.8753092,73.17996025085449,2.666950225830078,0.2930164337158203,55.957794189453125,56.250810623168945,59.153079986572266,60.24050712585449
1759169832.9380414,1759169832.9494083,79.39291000366211,5.046844482421875,0.3044605255126953,55.43041229248047,55.734872817993164,60.99343299865723,62.15190887451172
1759169833.0176263,1759169833.0286865,78.55510711669922,2.650022506713867,0.29850006103515625,55.33456802368164,55.6330680847168,58.593034744262695,59.916019439697266
1759169833.0963712,1759169833.1064236,73.04906845092773,1.1141300201416016,0.28634071350097656,55.22584915161133,55.512189865112305,56.96535110473633,58.463335037231445
1759169833.1771338,1759169833.2512317,114.94207382202148,6.439447402954102,0.2789497375488281,30.237913131713867,30.516862869262695,37.00685501098633,39.70789909362793
1759169833.292172,1759169833.3169506,71.96927070617676,9.824991226196289,0.3075599670410156,31.17823600769043,31.485795974731445,41.43810272216797,42.398929595947266
1759169833.3643787,1759169833.4363272,112.94937133789062,2.2459030151367188,0.2758502960205078,23.984909057617188,24.260759353637695,26.63135528564453,30.24601936340332
1759169833.4774632,1759169833.4828792,66.77055358886719,0.13637542724609375,0.3025531768798828,56.12659454345703,56.429147720336914,56.94913864135742,58.5174560546875
1759169833.5448518,1759169833.5555317,81.77995681762695,4.7626495361328125,0.30231475830078125,55.00531196594238,55.307626724243164,60.31537055969238,62.44254112243652
1759169833.6267688,1759169833.635755,75.34480094909668,0.5259513854980469,0.2987384796142578,55.82404136657715,56.122779846191406,57.03377723693848,58.76970291137695
1759169833.7023032,1759169833.7123132,71.5334415435791,0.1647472381591797,0.2994537353515625,56.082963943481445,56.38241767883301,56.9157600402832,59.23104286193848
1759169833.7749338,1759169833.787974,82.23509788513184,0.5125999450683594,0.30517578125,57.00516700744629,57.31034278869629,58.06469917297363,59.880733489990234
1759169833.8578744,1759169833.8596659,76.60627365112305,7.062435150146484,0.30684471130371094,55.66740036010742,55.97424507141113,63.269615173339844,64.76998329162598
1759169833.93463,1759169833.942887,70.47176361083984,0.6358623504638672,0.3020763397216797,55.68528175354004,55.98735809326172,56.96415901184082,58.70532989501953
1759169834.005199,1759169834.017053,81.81238174438477,3.346681594848633,0.30112266540527344,55.43112754821777,55.73225021362305,59.358835220336914,60.53757667541504
1759169834.0871494,1759169834.093316,71.54989242553711,3.351926803588867,0.293731689453125,56.17237091064453,56.466102600097656,60.063838958740234,61.898231506347656
1759169834.1644347,1759169834.1732252,69.71168518066406,0.25773048400878906,0.2994537353515625,56.17213249206543,56.47158622741699,57.070016860961914,59.134721755981445
1759169834.2342815,1759169834.2464204,77.64935493469238,4.5909881591796875,0.2963542938232422,55.53841590881348,55.83477020263672,60.637474060058594,62.77871131896973
1759169834.3146794,1759169834.3160083,83.93549919128418,12.057781219482422,0.2961158752441406,55.10139465332031,55.39751052856445,67.58737564086914,68.49908828735352
1759169834.4010813,1759169834.404863,78.2938003540039,0.6268024444580078,0.3108978271484375,55.58300018310547,55.893898010253906,56.887149810791016,59.288740158081055
1759169834.4795713,1759169834.4808435,70.86610794067383,1.3127326965332031,0.2906322479248047,54.6872615814209,54.9778938293457,56.60367012023926,57.75046348571777
1759169834.5505462,1759169834.5523903,77.07691192626953,5.5904388427734375,0.2903938293457031,55.11617660522461,55.40657043457031,61.248779296875,62.776803970336914
1759169834.6277611,1759169834.633911,66.70475006103516,0.018358230590820312,0.29659271240234375,55.8469295501709,56.14352226257324,56.56123161315918,58.14170837402344
1759169834.6956918,1759169834.6969626,88.37366104125977,14.040231704711914,0.3025531768798828,55.577754974365234,55.88030815124512,69.96297836303711,70.76287269592285
1759169834.7842066,1759169834.7875912,68.17293167114258,0.05602836608886719,0.30493736267089844,55.19437789916992,55.49931526184082,55.962562561035156,57.724952697753906
1759169834.8525198,1759169834.8637373,72.92509078979492,0.02002716064453125,0.2923011779785156,55.59372901916504,55.886030197143555,56.3051700592041,57.9986572265625
1759169834.92707,1759169834.9287708,85.86263656616211,11.242866516113281,0.3077983856201172,55.693864822387695,56.00166320800781,67.3682689666748,68.28880310058594
1759169835.0147614,1759169835.0162792,72.61204719543457,0.01621246337890625,0.29969215393066406,55.63759803771973,55.93729019165039,56.36286735534668,57.93905258178711
1759169835.0875258,1759169835.09292,66.56956672668457,0.14543533325195312,0.3018379211425781,55.11021614074707,55.41205406188965,55.930376052856445,57.76476860046387
1759169835.1557584,1759169835.1571097,85.30855178833008,12.099981307983398,0.301361083984375,55.61017990112305,55.91154098510742,68.13669204711914,69.0610408782959
1759169835.2419205,1759169835.2459512,67.46816635131836,0.5385875701904297,0.3046989440917969,54.593801498413086,54.89850044250488,55.80925941467285,58.023691177368164
1759169835.3095126,1759169835.3118875,87.04137802124023,10.1470947265625,0.29468536376953125,55.68361282348633,55.97829818725586,66.253662109375,67.39497184753418
1759169835.3972468,1759169835.3989978,73.54974746704102,0.037670135498046875,0.30303001403808594,55.6640625,55.967092514038086,56.41531944274902,57.814836502075195
1759169835.4709382,1759169835.4722455,71.77352905273438,3.5600662231445312,0.31447410583496094,55.63521385192871,55.94968795776367,59.78083610534668,61.072349548339844
1759169835.5430584,1759169835.5511138,72.39890098571777,1.3554096221923828,0.3032684326171875,55.69767951965332,56.00094795227051,57.66606330871582,59.27872657775879
1759169835.6156037,1759169835.61687,83.6331844329834,12.647151947021484,0.29921531677246094,55.07659912109375,55.37581443786621,68.0701732635498,68.9094066619873
1759169835.6993816,1759169835.704751,72.89648056030273,1.4777183532714844,0.32019615173339844,55.2210807800293,55.541276931762695,57.35349655151367,58.85148048400879
1759169835.7724607,1759169835.7798886,71.31791114807129,2.6078224182128906,0.3046989440917969,55.5415153503418,55.846214294433594,58.77327919006348,60.33802032470703
1759169835.8455775,1759169835.8563623,72.46112823486328,2.009153366088867,0.29730796813964844,56.49256706237793,56.78987503051758,59.04412269592285,60.350656509399414
1759169835.9190352,1759169835.93084,78.45401763916016,4.923105239868164,0.293731689453125,55.886030197143555,56.17976188659668,61.315059661865234,62.406063079833984
1759169836.0001395,1759169836.0014398,82.87334442138672,10.67352294921875,0.2865791320800781,55.94515800476074,56.23173713684082,67.0313835144043,67.93856620788574
1759169836.0831487,1759169836.088217,74.9356746673584,0.5350112915039062,0.2987384796142578,56.838274002075195,57.13701248168945,58.21704864501953,59.76605415344238
1759169836.1582248,1759169836.1655614,74.1264820098877,2.2330284118652344,0.3383159637451172,54.05735969543457,54.39567565917969,56.97298049926758,58.464765548706055
1759169836.2325406,1759169836.2417252,69.1688060760498,0.16927719116210938,0.29468536376953125,56.291818618774414,56.586503982543945,57.14702606201172,59.3414306640625
1759169836.3026247,1759169836.3140364,88.11140060424805,4.684686660766602,0.31876564025878906,56.65135383605957,56.97011947631836,61.82861328125,62.941789627075195
1759169836.3908749,1759169836.395973,65.2000904083252,0.13875961303710938,0.2963542938232422,55.50670623779297,55.80306053161621,56.314945220947266,58.00437927246094
1759169836.4562626,1759169836.4676042,77.53729820251465,4.927396774291992,0.29397010803222656,55.8779239654541,56.17189407348633,61.304330825805664,62.78419494628906
1759169836.5387766,1759169836.5471852,74.62143898010254,1.8029212951660156,0.2930164337158203,55.556297302246094,55.849313735961914,57.92832374572754,59.11731719970703
1759169836.6135418,1759169836.6215663,79.16975021362305,4.433393478393555,0.29468536376953125,55.48095703125,55.77564239501953,60.48130989074707,61.794281005859375
1759169836.69285,1759169836.7008724,79.96678352355957,2.095460891723633,0.2884864807128906,55.118560791015625,55.407047271728516,57.8465461730957,59.13567543029785
1759169836.7729526,1759169836.7742343,76.7974853515625,4.344701766967773,0.2856254577636719,56.2589168548584,56.54454231262207,61.09952926635742,62.21723556518555
1759169836.8498933,1759169836.8512192,73.06671142578125,5.141258239746094,0.29397010803222656,55.05990982055664,55.35387992858887,60.78290939331055,62.08395957946777
1759169836.9232016,1759169836.9244876,69.00477409362793,8.24594497680664,0.2899169921875,55.64761161804199,55.93752861022949,64.3916130065918,65.5221939086914
1759169836.9923484,1759169836.9977396,84.23829078674316,11.997222900390625,0.29969215393066406,55.390119552612305,55.68981170654297,67.86823272705078,69.13208961486816
1759169837.0772996,1759169837.0834038,74.80931282043457,3.1189918518066406,0.31113624572753906,55.494070053100586,55.805206298828125,59.22961235046387,60.335636138916016
1759169837.1522605,1759169837.1624498,78.89294624328613,0.23603439331054688,0.3120899200439453,55.658817291259766,55.97090721130371,56.54621124267578,58.2578182220459
1759169837.2313006,1759169837.2391748,70.32942771911621,0.041961669921875,0.30493736267089844,55.91011047363281,56.21504783630371,56.66923522949219,58.22873115539551
1759169837.3018205,1759169837.3124275,79.30731773376465,4.092931747436523,0.2982616424560547,55.47666549682617,55.77492713928223,60.11629104614258,61.490535736083984
1759169837.3836355,1759169837.3910422,76.19857788085938,1.7426013946533203,0.2949237823486328,55.6640625,55.95898628234863,58.00652503967285,59.3109130859375
1759169837.4602275,1759169837.4678953,70.82509994506836,2.0723342895507812,0.2970695495605469,55.205345153808594,55.50241470336914,57.918548583984375,59.31520462036133
1759169837.5312397,1759169837.5422072,78.35745811462402,4.274129867553711,0.29587745666503906,55.48501014709473,55.780887603759766,60.26411056518555,61.644792556762695
1759169837.6137202,1759169837.6219003,74.04232025146484,0.05412101745605469,0.29659271240234375,56.77676200866699,57.073354721069336,57.53040313720703,59.41891670227051
1759169837.6879535,1759169837.6966538,72.83854484558105,3.3435821533203125,0.3006458282470703,55.629730224609375,55.930376052856445,59.55028533935547,60.69517135620117
1759169837.7643535,1759169837.767088,82.51070976257324,9.509801864624023,0.2970695495605469,55.62019348144531,55.91726303100586,65.55795669555664,66.68901443481445
1759169837.8470106,1759169837.8528264,75.93297958374023,0.1437664031982422,0.2968311309814453,56.34641647338867,56.64324760437012,57.22975730895996,59.035539627075195
1759169837.9230814,1759169837.9305315,68.28570365905762,0.0209808349609375,0.308990478515625,54.804325103759766,55.11331558227539,55.552005767822266,57.242393493652344
1759169837.991563,1759169837.9989033,83.15014839172363,8.11004638671875,0.3085136413574219,55.48906326293945,55.797576904296875,64.02993202209473,65.0482177734375
1759169838.075425,1759169838.0826316,75.94990730285645,0.25916099548339844,0.30803680419921875,56.3356876373291,56.64372444152832,57.24668502807617,59.22365188598633
1759169838.151519,1759169838.159414,73.77958297729492,0.247955322265625,0.29540061950683594,55.80711364746094,56.10251426696777,56.69116973876953,58.42447280883789
1759169838.2259645,1759169838.236198,71.00152969360352,0.03981590270996094,0.29921531677246094,56.20074272155762,56.49995803833008,56.9462776184082,58.56013298034668
1759169838.2989717,1759169838.31196,74.55778121948242,1.7857551574707031,0.2911090850830078,54.84604835510254,55.13715744018555,57.227134704589844,58.45832824707031
1759169838.374033,1759169838.3753304,89.97774124145508,14.536142349243164,0.2963542938232422,55.23061752319336,55.5269718170166,70.19877433776855,71.06709480285645
1759169838.4651597,1759169838.4664457,59.400320053100586,0.018835067749023438,0.3066062927246094,54.79073524475098,55.097341537475586,55.51409721374512,57.00230598449707
1759169838.5247014,1759169838.5311935,83.56881141662598,11.33584976196289,0.2994537353515625,54.93974685668945,55.239200592041016,66.61725044250488,67.42572784423828
1759169838.608461,1759169838.6177254,69.15950775146484,0.5643367767333984,0.3075599670410156,55.7551383972168,56.06269836425781,57.00516700744629,58.73870849609375
1759169838.680873,1759169838.6821306,73.53639602661133,12.127161026000977,0.3020763397216797,56.7784309387207,57.08050727844238,69.25010681152344,70.10054588317871
1759169838.7546165,1759169838.758654,85.86812019348145,13.83662223815918,0.30684471130371094,54.956674575805664,55.263519287109375,69.22745704650879,70.39904594421387
1759169838.8406377,1759169838.8476994,68.53938102722168,0.23221969604492188,0.2961158752441406,56.26487731933594,56.56099319458008,57.14154243469238,58.91227722167969
1759169838.9096797,1759169838.922189,84.91253852844238,2.807140350341797,0.2918243408203125,56.39004707336426,56.68187141418457,59.795379638671875,61.89608573913574
1759169838.9947822,1759169839.0021064,66.38598442077637,0.1304149627685547,0.3018379211425781,55.81998825073242,56.121826171875,56.62846565246582,58.2888126373291
1759169839.0613632,1759169839.0714314,86.7776870727539,7.93004035949707,0.3218650817871094,55.44281005859375,55.76467514038086,63.868045806884766,64.98599052429199
1759169839.1482813,1759169839.1539464,78.09066772460938,2.1398067474365234,0.32782554626464844,55.321455001831055,55.6492805480957,58.13312530517578,59.4635009765625
1759169839.2265716,1759169839.2320628,65.40799140930176,0.13446807861328125,0.3504753112792969,55.93085289001465,56.281328201293945,56.79059028625488,58.791160583496094
1759169839.2924826,1759169839.3052254,77.43644714355469,3.432750701904297,0.3070831298828125,56.49137496948242,56.798458099365234,60.44769287109375,61.98692321777344
1759169839.3700564,1759169839.3799055,84.78426933288574,6.899356842041016,0.2923011779785156,54.621219635009766,54.91352081298828,61.985015869140625,62.93678283691406
1759169839.4549801,1759169839.4614596,69.10252571105957,0.1480579376220703,0.29587745666503906,56.66828155517578,56.96415901184082,57.48796463012695,59.149742126464844
1759169839.5242202,1759169839.529636,83.18638801574707,9.893417358398438,0.30040740966796875,55.556297302246094,55.85670471191406,65.7954216003418,66.58768653869629
1759169839.6075542,1759169839.6742353,96.08054161071777,1.7266273498535156,0.2777576446533203,22.336483001708984,22.614240646362305,24.649858474731445,28.569936752319336
1759169839.7091196,1759169839.7178965,70.59454917907715,0.22864341735839844,0.2930164337158203,56.874752044677734,57.167768478393555,57.74497985839844,59.65995788574219
1759169839.78266,1759169839.7839088,85.9231948852539,11.990070343017578,0.3008842468261719,55.8624267578125,56.16331100463867,68.28022003173828,69.13280487060547
1759169839.8691773,1759169839.8704681,71.87747955322266,2.7685165405273438,0.3387928009033203,55.27472496032715,55.61351776123047,58.71915817260742,60.225486755371094
1759169839.9411924,1759169839.9498286,67.38018989562988,0.02002716064453125,0.2963542938232422,55.383920669555664,55.680274963378906,56.098222732543945,57.75952339172363
1759169840.0087683,1759169840.0152657,85.5107307434082,11.332988739013672,0.2894401550292969,55.27949333190918,55.56893348693848,67.07262992858887,69.23627853393555
1759169840.094416,1759169840.1005723,75.68001747131348,2.522706985473633,0.3123283386230469,54.89230155944824,55.20462989807129,58.040618896484375,59.31711196899414
1759169840.1702342,1759169840.1776974,67.84486770629883,1.0113716125488281,0.2994537353515625,56.14304542541504,56.4424991607666,57.79552459716797,59.343814849853516
1759169840.2382748,1759169840.2482026,81.73489570617676,7.465839385986328,0.3108978271484375,56.02097511291504,56.33187294006348,63.837528228759766,64.63265419006348
1759169840.3201005,1759169840.321369,88.7444019317627,11.631250381469727,0.29754638671875,55.56488037109375,55.8624267578125,67.54255294799805,68.33148002624512
1759169840.4090543,1759169840.5375447,179.28409576416016,7.14564323425293,0.3046989440917969,24.457216262817383,24.76191520690918,32.228708267211914,59.0357780456543
1759169840.5886252,1759169840.592524,63.18330764770508,0.019073486328125,0.3044605255126953,53.10416221618652,53.40862274169922,53.8325309753418,55.50742149353027
1759169840.6530213,1759169840.6670456,83.75954627990723,0.4248619079589844,0.31185150146484375,54.22496795654297,54.53681945800781,55.23085594177246,57.03544616699219
1759169840.7369208,1759169840.742666,73.18115234375,0.015497207641601562,0.2968311309814453,55.991172790527344,56.28800392150879,56.70523643493652,58.185577392578125
1759169840.8102438,1759169840.8175237,71.5630054473877,2.3610591888427734,0.30112266540527344,55.39441108703613,55.695533752441406,58.35580825805664,59.97633934020996
1759169840.8820744,1759169840.9541698,100.30698776245117,2.0990371704101562,0.2903938293457031,22.031545639038086,22.32193946838379,24.58930015563965,28.432369232177734
1759169840.9846184,1759169840.9946551,84.52057838439941,4.488229751586914,0.2968311309814453,55.609703063964844,55.90653419494629,60.60504913330078,61.93685531616211
1759169841.0695481,1759169841.0758493,67.02566146850586,0.019788742065429688,0.29587745666503906,55.48548698425293,55.78136444091797,56.20121955871582,57.85417556762695
1759169841.138168,1759169841.1394465,84.74421501159668,12.473344802856445,0.2923011779785156,56.076765060424805,56.36906623840332,68.88437271118164,69.6866512298584
1759169841.2236774,1759169841.2251132,67.17920303344727,3.739595413208008,0.2982616424560547,57.89899826049805,58.1972599029541,62.245845794677734,63.706398010253906
1759169841.2933035,1759169841.2956629,87.25643157958984,12.190580368041992,0.3361701965332031,53.9555549621582,54.291725158691406,66.61367416381836,67.73877143859863
1759169841.3813276,1759169841.383415,61.4018440246582,0.03886222839355469,0.29778480529785156,54.875850677490234,55.173635482788086,55.60874938964844,57.01255798339844
1759169841.4429214,1759169841.4530427,84.74230766296387,5.996227264404297,0.29206275939941406,55.975914001464844,56.26797676086426,62.435150146484375,63.538551330566406
1759169841.5277996,1759169841.5351658,75.87289810180664,0.5197525024414062,0.2903938293457031,55.39250373840332,55.68289756774902,56.57458305358887,58.31432342529297
1759169841.6041172,1759169841.6054168,77.77547836303711,6.227970123291016,0.30159950256347656,55.457353591918945,55.75895309448242,62.117815017700195,63.05861473083496
1759169841.6820316,1759169841.6876352,65.58799743652344,0.5171298980712891,0.2956390380859375,54.98528480529785,55.28092384338379,56.17260932922363,57.566165924072266
1759169841.7477596,1759169841.7564175,78.09710502624512,7.689952850341797,0.2906322479248047,55.88197708129883,56.17260932922363,63.99178504943848,64.89896774291992
1759169841.82804,1759169841.8293061,86.41839027404785,11.525869369506836,0.2951622009277344,55.53007125854492,55.825233459472656,67.39306449890137,68.1772232055664
1759169841.915407,1759169841.9174771,68.05086135864258,0.049114227294921875,0.2980232238769531,55.365562438964844,55.6635856628418,56.121826171875,57.593345642089844
1759169841.98449,1759169841.9934773,68.09616088867188,0.5078315734863281,0.2987384796142578,55.32574653625488,55.62448501586914,56.50019645690918,58.008432388305664
1759169842.0527253,1759169842.0643606,77.69417762756348,5.819082260131836,0.2903938293457031,55.8466911315918,56.1370849609375,62.129974365234375,64.02444839477539
1759169842.1323268,1759169842.1336114,87.33987808227539,12.941360473632812,0.29158592224121094,55.43637275695801,55.72795867919922,68.71414184570312,69.51427459716797
1759169842.2199168,1759169842.2219565,72.79515266418457,0.537872314453125,0.3018379211425781,56.369781494140625,56.6716194152832,57.58786201477051,59.5240592956543
1759169842.2928498,1759169842.294987,70.52159309387207,5.35893440246582,0.3159046173095703,54.49342727661133,54.8093318939209,60.37330627441406,61.6297721862793
1759169842.3634677,1759169842.3749378,73.78005981445312,0.7770061492919922,0.29587745666503906,55.753469467163086,56.049346923828125,57.137250900268555,59.020280838012695
1759169842.4373858,1759169842.44978,78.6902904510498,3.1011104583740234,0.3116130828857422,55.41110038757324,55.722713470458984,59.12971496582031,60.55283546447754
1759169842.5162086,1759169842.5271232,73.97890090942383,2.305746078491211,0.3075599670410156,54.811716079711914,55.11927604675293,57.72852897644043,59.186458587646484
1759169842.5903277,1759169842.6012669,77.96740531921387,4.097461700439453,0.31065940856933594,55.39393424987793,55.704593658447266,60.00518798828125,61.50460243225098
1759169842.6700177,1759169842.680552,75.5009651184082,1.1615753173828125,0.2961158752441406,55.79495429992676,56.0910701751709,57.59263038635254,59.5705509185791
1759169842.7484024,1759169842.7557256,75.23226737976074,2.62451171875,0.31256675720214844,55.01604080200195,55.3286075592041,58.18939208984375,59.9217414855957
1759169842.8238192,1759169842.8286617,71.03133201599121,5.8078765869140625,0.3039836883544922,55.55868148803711,55.8626651763916,61.9199275970459,63.65561485290527
1759169842.8980775,1759169842.8997328,80.12795448303223,11.491537094116211,0.30994415283203125,55.4509162902832,55.760860443115234,67.37947463989258,68.28188896179199
1759169842.9783905,1759169842.9843273,71.3508129119873,3.7796497344970703,0.2982616424560547,55.25922775268555,55.5574893951416,59.580326080322266,61.21492385864258
1759169843.0533214,1759169843.0546813,83.35113525390625,9.720563888549805,0.3082752227783203,55.01389503479004,55.32217025756836,65.16909599304199,66.09010696411133
1759169843.13681,1759169843.1407626,56.52117729187012,0.133514404296875,0.2894401550292969,49.227237701416016,49.51667785644531,50.035715103149414,51.705360412597656
1759169843.1934297,1759169843.1947799,91.17317199707031,16.861438751220703,0.29468536376953125,54.589271545410156,54.88395690917969,71.78878784179688,72.58057594299316
1759169843.2852945,1759169843.2868607,68.87269020080566,0.0171661376953125,0.2970695495605469,56.084632873535156,56.3817024230957,56.81204795837402,58.328866958618164
1759169843.3543098,1759169843.3617275,78.15694808959961,1.918792724609375,0.2970695495605469,56.11300468444824,56.41007423400879,58.66408348083496,59.91387367248535
1759169843.432608,1759169843.4384773,70.33753395080566,1.6598701477050781,0.2949237823486328,55.84406852722168,56.13899230957031,58.05516242980957,61.738014221191406
1759169843.5030797,1759169843.512315,84.48576927185059,4.304647445678711,0.2911090850830078,57.045698165893555,57.33680725097656,61.93232536315918,63.12894821166992
1759169843.5877051,1759169843.5891383,78.5830020904541,5.414247512817383,0.3070831298828125,55.219173431396484,55.5262565612793,61.14840507507324,62.308549880981445
1759169843.666435,1759169843.6706722,67.90876388549805,0.5517005920410156,0.3142356872558594,55.085182189941406,55.399417877197266,56.322336196899414,57.627201080322266
1759169843.7358856,1759169843.737557,76.45750045776367,9.727239608764648,0.31757354736328125,55.72009086608887,56.03766441345215,65.93704223632812,66.9708251953125
1759169843.8137262,1759169843.8152106,76.30062103271484,9.528160095214844,0.34236907958984375,55.217742919921875,55.56011199951172,65.25707244873047,66.43414497375488
1759169843.8901746,1759169843.8985732,73.87256622314453,2.004384994506836,0.29277801513671875,56.11371994018555,56.406497955322266,58.65359306335449,59.848785400390625
1759169843.9641857,1759169843.965462,76.44081115722656,12.313604354858398,0.2930164337158203,55.823564529418945,56.116580963134766,68.47310066223145,69.25702095031738
1759169844.0410433,1759169844.0524933,77.0409107208252,1.7871856689453125,0.2980232238769531,56.17070198059082,56.46872520446777,58.51125717163086,60.358285903930664
1759169844.118177,1759169844.1194787,86.37499809265137,12.433052062988281,0.2951622009277344,55.38630485534668,55.681467056274414,68.24350357055664,69.16689872741699
1759169844.2054543,1759169844.2071483,61.832427978515625,1.2853145599365234,0.31065940856933594,55.6492805480957,55.95993995666504,57.56354331970215,58.838605880737305
1759169844.267432,1759169844.277743,79.2233943939209,7.598876953125,0.3018379211425781,55.443525314331055,55.74536323547363,63.38834762573242,64.28337097167969
1759169844.3503108,1759169844.3516674,70.5878734588623,9.539604187011719,0.30612945556640625,56.52666091918945,56.83279037475586,66.50209426879883,67.36636161804199
1759169844.4210436,1759169844.422365,87.40544319152832,16.687631607055664,0.30112266540527344,55.60612678527832,55.907249450683594,72.63445854187012,73.41647148132324
1759169844.5086067,1759169844.5154486,69.42343711853027,0.5614757537841797,0.2913475036621094,55.62186241149902,55.91320991516113,56.84304237365723,58.59804153442383
1759169844.579306,1759169844.5805871,84.4106674194336,11.897802352905273,0.3070831298828125,55.2983283996582,55.605411529541016,67.54684448242188,68.35198402404785
1759169844.6653883,1759169844.6688478,70.0836181640625,0.019073486328125,0.29468536376953125,55.170297622680664,55.464982986450195,55.8931827545166,57.36351013183594
1759169844.735714,1759169844.7428212,79.01144027709961,2.6290416717529297,0.30875205993652344,55.3896427154541,55.698394775390625,58.62832069396973,60.486555099487305
1759169844.815234,1759169844.8169405,76.36213302612305,5.491495132446289,0.31256675720214844,55.06324768066406,55.37581443786621,61.1114501953125,62.57915496826172
1759169844.89169,1759169844.8930001,79.0708065032959,5.698204040527344,0.29587745666503906,55.817365646362305,56.113243103027344,61.93828582763672,62.8509521484375
1759169844.9709418,1759169844.9746563,72.06273078918457,0.05650520324707031,0.30112266540527344,55.99403381347656,56.295156478881836,56.751251220703125,58.74037742614746
1759169845.0431452,1759169845.0508356,70.55807113647461,0.9663105010986328,0.29349327087402344,55.93228340148926,56.22577667236328,57.491302490234375,59.485435485839844
1759169845.113841,1759169845.1229665,77.92401313781738,6.215095520019531,0.29468536376953125,55.50241470336914,55.79710006713867,62.18528747558594,63.2479190826416
1759169845.1933136,1759169845.264551,100.32153129577637,0.5869865417480469,0.28061866760253906,22.535324096679688,22.815942764282227,23.74100685119629,28.65886688232422
1759169845.2952344,1759169845.3062263,74.29790496826172,2.068042755126953,0.29730796813964844,55.85789680480957,56.15520477294922,58.46691131591797,59.902191162109375
1759169845.3714058,1759169845.372684,87.74566650390625,12.676715850830078,0.30517578125,55.18841743469238,55.49359321594238,68.21703910827637,69.02170181274414
1759169845.4593425,1759169845.4615748,66.1001205444336,0.041961669921875,0.293731689453125,55.85074424743652,56.14447593688965,56.58411979675293,58.107614517211914
1759169845.526555,1759169845.527825,86.64703369140625,10.701179504394531,0.2932548522949219,55.61494827270508,55.908203125,66.7414665222168,67.65174865722656
1759169845.6133447,1759169845.615318,66.9870376586914,0.02002716064453125,0.3020763397216797,55.502891540527344,55.80496788024902,56.23173713684082,57.878971099853516
1759169845.6814616,1759169845.6896074,73.1801986694336,2.492666244506836,0.2906322479248047,55.54556846618652,55.83620071411133,58.634042739868164,60.06360054016113
1759169845.7548265,1759169845.7661433,81.8321704864502,3.088712692260742,0.3070831298828125,55.85932731628418,56.16641044616699,59.74769592285156,61.11550331115723
1759169845.837041,1759169845.843439,75.92463493347168,3.470897674560547,0.30159950256347656,54.125070571899414,54.42667007446289,58.187007904052734,59.39030647277832
1759169845.9131024,1759169845.9196897,70.77908515930176,2.8219223022460938,0.2987384796142578,55.54509162902832,55.84383010864258,58.976173400878906,60.587406158447266
1759169845.9839766,1759169845.9899642,85.95824241638184,9.688377380371094,0.2930164337158203,55.434465408325195,55.727481842041016,65.55032730102539,66.45846366882324
1759169846.0706618,1759169846.0756724,67.36922264099121,0.5474090576171875,0.3190040588378906,55.12857437133789,55.44757843017578,56.3662052154541,58.11738967895508
1759169846.1381688,1759169846.1463704,75.69122314453125,6.516695022583008,0.2963542938232422,54.70085144042969,54.99720573425293,61.68627738952637,62.82830238342285
1759169846.2160609,1759169846.2854211,109.68899726867676,3.3195018768310547,0.27751922607421875,22.0792293548584,22.356748580932617,25.725364685058594,89.1110897064209
1759169846.3258834,1759169846.330813,69.95964050292969,0.15473365783691406,0.28634071350097656,56.84256553649902,57.12890625,57.65557289123535,59.67378616333008
1759169846.395984,1759169846.3972464,87.59355545043945,11.732339859008789,0.31304359436035156,55.24253845214844,55.55558204650879,67.46077537536621,68.48907470703125
1759169846.4837196,1759169846.4860024,66.91169738769531,0.018835067749023438,0.29778480529785156,55.1302433013916,55.42802810668945,55.858612060546875,57.39998817443848
1759169846.5508134,1759169846.559554,82.52930641174316,2.3512840270996094,0.29778480529785156,55.928707122802734,56.226491928100586,58.85171890258789,60.1353645324707
1759169846.6334794,1759169846.6368883,68.35556030273438,1.0030269622802734,0.28896331787109375,56.355953216552734,56.64491653442383,57.955265045166016,61.403512954711914
1759169846.7028801,1759169846.7131765,72.8600025177002,1.8391609191894531,0.2949237823486328,55.742740631103516,56.03766441345215,58.15768241882324,59.39817428588867
1759169846.77803,1759169846.780405,73.99702072143555,11.573553085327148,0.29087066650390625,55.56440353393555,55.85527420043945,67.55495071411133,68.66788864135742
1759169846.8530586,1759169846.8662844,77.52704620361328,2.222299575805664,0.3032684326171875,55.81521987915039,56.11848831176758,58.615922927856445,59.74626541137695
1759169846.930722,1759169846.9386847,78.69577407836914,6.888628005981445,0.293731689453125,55.82165718078613,56.11538887023926,63.17400932312012,64.18371200561523
1759169847.0104434,1759169847.0192418,76.39718055725098,2.7086734771728516,0.2923011779785156,56.00690841674805,56.29920959472656,59.28492546081543,60.60051918029785
1759169847.086937,1759169847.0940852,83.39095115661621,5.33294677734375,0.30040740966796875,54.9163818359375,55.21678924560547,60.79363822937012,62.307119369506836
1759169847.1704633,1759169847.174806,70.47510147094727,0.04029273986816406,0.293731689453125,55.654287338256836,55.94801902770996,56.396484375,58.007240295410156
1759169847.2413204,1759169847.2513282,72.37625122070312,0.019788742065429688,0.3178119659423828,56.15806579589844,56.47587776184082,56.896209716796875,58.591604232788086
1759169847.3138828,1759169847.325106,78.73249053955078,3.6067962646484375,0.29778480529785156,54.93783950805664,55.23562431335449,59.11517143249512,61.04421615600586
1759169847.3927536,1759169847.4013195,77.5449275970459,3.6275386810302734,0.29277801513671875,55.066585540771484,55.3593635559082,59.22842025756836,60.39023399353027
1759169847.4709775,1759169847.478936,72.88932800292969,1.9211769104003906,0.2968311309814453,55.948734283447266,56.24556541442871,58.50720405578613,59.676408767700195
1759169847.5440052,1759169847.5522172,75.46806335449219,5.344629287719727,0.29087066650390625,56.079864501953125,56.37073516845703,61.92326545715332,63.178062438964844
1759169847.6196196,1759169847.6336415,80.5521011352539,1.2118816375732422,0.30994415283203125,55.38630485534668,55.69624900817871,57.251930236816406,58.770179748535156
1759169847.700362,1759169847.7091591,73.21381568908691,2.644062042236328,0.29349327087402344,54.66270446777344,54.95619773864746,57.90901184082031,59.27014350891113
1759169847.7781663,1759169847.786538,74.84722137451172,1.2166500091552734,0.301361083984375,55.01365661621094,55.31501770019531,56.87761306762695,58.40921401977539
1759169847.8548775,1759169847.8591387,75.99353790283203,5.498647689819336,0.2970695495605469,54.98242378234863,55.27949333190918,61.0201358795166,62.532901763916016
1759169847.931601,1759169847.9401243,71.3803768157959,0.018358230590820312,0.29778480529785156,55.71317672729492,56.01096153259277,56.44679069519043,58.12478065490723
1759169848.0053542,1759169848.0067813,84.21993255615234,10.345458984375,0.29587745666503906,56.29420280456543,56.59008026123047,67.21305847167969,68.25852394104004
1759169848.090101,1759169848.0950675,65.92273712158203,0.58746337890625,0.331878662109375,54.06951904296875,54.401397705078125,55.3743839263916,57.22475051879883
1759169848.1561697,1759169848.169134,73.28462600708008,1.8780231475830078,0.3120899200439453,55.4349422454834,55.747032165527344,57.868242263793945,59.2041015625
1759169848.2295625,1759169848.2309153,74.83530044555664,9.853601455688477,0.08487701416015625,60.72235107421875,60.807228088378906,70.92142105102539,72.58462905883789
1759169848.3045616,1759169848.3068662,28.442859649658203,0.09083747863769531,0.2932548522949219,22.23801612854004,22.53127098083496,23.03028106689453,24.959564208984375
1759169848.3333173,1759169848.345875,88.1490707397461,5.638599395751953,0.3001689910888672,53.97534370422363,54.2755126953125,60.04786491394043,62.21604347229004
1759169848.421577,1759169848.4260967,66.09654426574707,0.9555816650390625,0.3025531768798828,54.62932586669922,54.9318790435791,56.232452392578125,57.416677474975586
1759169848.4878201,1759169848.4989471,73.66704940795898,4.795074462890625,0.31065940856933594,54.320573806762695,54.63123321533203,59.64779853820801,60.683488845825195
1759169848.566246,1759169848.5769641,83.5886001586914,1.2977123260498047,0.3285408020019531,56.81967735290527,57.14821815490723,58.69626998901367,60.62150001525879
1759169848.6499739,1759169848.6546824,67.64006614685059,0.09012222290039062,0.3085136413574219,56.87260627746582,57.18111991882324,57.68918991088867,60.12868881225586
1759169848.7207887,1759169848.7303004,73.2111930847168,1.9714832305908203,0.31256675720214844,56.22434616088867,56.53691291809082,58.745384216308594,59.751272201538086
1759169848.7981887,1759169848.8078282,70.6181526184082,1.046895980834961,0.2949237823486328,55.73439598083496,56.029319763183594,57.35135078430176,59.53860282897949
1759169848.8727787,1759169848.875083,71.74062728881836,10.491609573364258,0.30231475830078125,55.50265312194824,55.80496788024902,66.43128395080566,67.54708290100098
1759169848.9446623,1759169848.9485652,78.91178131103516,13.799190521240234,0.30231475830078125,55.72319030761719,56.02550506591797,69.8709487915039,70.68538665771484
1759169849.0251367,1759169849.0264087,82.75890350341797,12.047290802001953,0.29969215393066406,56.180477142333984,56.48016929626465,68.57132911682129,69.36168670654297
1759169849.1080368,1759169849.1093054,68.62354278564453,6.477117538452148,0.2942085266113281,55.817604064941406,56.111812591552734,62.758445739746094,63.83109092712402
1759169849.1767588,1759169849.1780977,73.85754585266113,9.810686111450195,0.08416175842285156,59.06558036804199,59.149742126464844,69.18668746948242,70.88494300842285
1759169849.2508135,1759169849.2521234,34.209251403808594,0.019788742065429688,0.2777576446533203,22.67599105834961,22.95374870300293,23.388385772705078,25.04897117614746
1759169849.2880418,1759169849.293658,69.13638114929199,1.9795894622802734,0.2925395965576172,55.22513389587402,55.51767349243164,57.76810646057129,59.050559997558594
1759169849.3573675,1759169849.3667886,75.52766799926758,5.544424057006836,0.30303001403808594,55.450439453125,55.753469467163086,61.47313117980957,63.75384330749512
1759169849.4370992,1759169849.4387434,72.96895980834961,9.769916534423828,0.2942085266113281,55.8319091796875,56.12611770629883,66.06602668762207,67.20185279846191
1759169849.5102088,1759169849.518131,77.91304588317871,7.437229156494141,0.3204345703125,55.38821220397949,55.70864677429199,63.192129135131836,63.997507095336914
1759169849.589548,1759169849.5989225,71.65026664733887,3.390789031982422,0.3063678741455078,55.69100379943848,55.997371673583984,59.641361236572266,61.67936325073242
1759169849.661344,1759169849.6719718,78.69768142700195,7.452964782714844,0.3104209899902344,54.95119094848633,55.26161193847656,62.76559829711914,63.59052658081055
1759169849.7443128,1759169849.7467277,83.7395191192627,9.607076644897461,0.31566619873046875,54.86631393432617,55.18198013305664,64.83316421508789,66.7722225189209
1759169849.8285198,1759169849.8330472,65.7196044921875,0.018596649169921875,0.3018379211425781,54.48555946350098,54.787397384643555,55.22918701171875,56.64491653442383
1759169849.8967967,1759169849.9663153,110.17465591430664,2.3374557495117188,0.2982616424560547,24.234771728515625,24.53303337097168,27.08292007446289,30.506610870361328
1759169850.007119,1759169850.0084662,76.25198364257812,5.993366241455078,0.3082752227783203,54.38661575317383,54.69489097595215,60.73164939880371,61.54060363769531
1759169850.0834715,1759169850.0894892,70.87159156799316,0.09512901306152344,0.29969215393066406,56.40006065368652,56.69975280761719,57.20853805541992,59.12637710571289
1759169850.1544838,1759169850.1653035,73.39859008789062,2.249002456665039,0.2987384796142578,54.909467697143555,55.20820617675781,57.72686004638672,60.021400451660156
1759169850.231099,1759169850.2331717,85.479736328125,9.923934936523438,0.2970695495605469,56.14161491394043,56.43868446350098,66.57743453979492,67.65151023864746
1759169850.3170307,1759169850.320883,66.40291213989258,0.18262863159179688,0.3108978271484375,54.36515808105469,54.676055908203125,55.23252487182617,56.9462776184082
1759169850.3835793,1759169850.3848736,86.06433868408203,11.343240737915039,0.30493736267089844,55.59563636779785,55.90057373046875,67.41547584533691,68.33744049072266
1759169850.4703617,1759169850.4724553,70.19567489624023,0.05626678466796875,0.2980232238769531,55.97257614135742,56.270599365234375,56.7319393157959,58.24446678161621
1759169850.541595,1759169850.5430517,80.4605484008789,6.304502487182617,0.3070831298828125,55.65786361694336,55.96494674682617,62.4392032623291,63.40599060058594
1759169850.6225178,1759169850.623788,75.83117485046387,1.9969940185546875,0.29587745666503906,55.963754653930664,56.2596321105957,58.49313735961914,59.6928596496582
1759169850.6984832,1759169850.7029376,65.08088111877441,0.1583099365234375,0.29206275939941406,55.52840232849121,55.820465087890625,56.35190010070801,57.8460693359375
1759169850.7637038,1759169850.7688842,76.49683952331543,10.89334487915039,0.2980232238769531,55.70173263549805,55.999755859375,67.01517105102539,68.0379867553711
1759169850.8408976,1759169850.8544765,75.34289360046387,1.979827880859375,0.30541419982910156,55.91630935668945,56.221723556518555,58.47883224487305,61.34605407714844
1759169850.9163833,1759169850.928894,75.55031776428223,4.458427429199219,0.30112266540527344,55.487871170043945,55.78899383544922,60.45794486999512,61.4778995513916
1759169850.9921303,1759169850.9985828,86.4870548248291,11.006593704223633,0.29778480529785156,56.07461929321289,56.37240409851074,67.42668151855469,68.23945045471191
1759169851.0787575,1759169851.086367,67.02566146850586,0.1456737518310547,0.2987384796142578,56.04839324951172,56.34713172912598,56.86020851135254,58.3653450012207
1759169851.1458821,1759169851.15556,83.99438858032227,7.644414901733398,0.3108978271484375,55.70650100708008,56.017398834228516,63.79103660583496,64.70513343811035
1759169851.2305865,1759169851.239563,74.35941696166992,0.5767345428466797,0.29754638671875,55.46903610229492,55.76658248901367,56.7173957824707,58.40182304382324
1759169851.3057942,1759169851.3132303,76.63202285766602,3.478527069091797,0.2923011779785156,55.167198181152344,55.45949935913086,59.216976165771484,60.67085266113281
1759169851.3843248,1759169851.3904426,71.16246223449707,1.9710063934326172,0.3077983856201172,55.739641189575195,56.04743957519531,58.26735496520996,61.3856315612793
1759169851.4556437,1759169851.457174,86.86256408691406,11.924982070922852,0.2968311309814453,55.90200424194336,56.198835372924805,68.25399398803711,69.34380531311035
1759169851.5426023,1759169851.5448854,64.93496894836426,0.5877017974853516,0.3027915954589844,56.121826171875,56.424617767333984,57.38186836242676,59.38363075256348
1759169851.6077287,1759169851.6183648,79.74886894226074,4.199504852294922,0.2956390380859375,55.932044982910156,56.227684020996094,60.636043548583984,61.798810958862305
1759169851.6884356,1759169851.6994774,74.19133186340332,0.1537799835205078,0.2930164337158203,55.63640594482422,55.92942237854004,56.45561218261719,58.09307098388672
1759169851.7631252,1759169851.7644227,86.47966384887695,12.140035629272461,0.29730796813964844,55.4051399230957,55.70244789123535,67.97003746032715,68.89533996582031
1759169851.8498085,1759169851.8514438,77.11267471313477,1.558065414428711,0.30350685119628906,55.23276329040527,55.53627014160156,57.402610778808594,58.89701843261719
1759169851.9273603,1759169851.9293637,66.72430038452148,0.020503997802734375,0.3039836883544922,55.59277534484863,55.896759033203125,56.32758140563965,58.005571365356445
1759169851.994219,1759169852.0001702,71.43521308898926,6.105661392211914,0.2987384796142578,55.779218673706055,56.07795715332031,62.39914894104004,63.593149185180664
1759169852.06585,1759169852.0671482,87.83698081970215,16.093730926513672,0.3108978271484375,55.54962158203125,55.86051940917969,72.00002670288086,72.83759117126465
1759169852.153872,1759169852.1596918,67.37899780273438,0.020742416381835938,0.2899169921875,55.876731872558594,56.166648864746094,56.59794807434082,58.29644203186035
1759169852.2213843,1759169852.2299507,84.62285995483398,6.724119186401367,0.2994537353515625,55.89866638183594,56.1981201171875,63.0488395690918,66.02191925048828
1759169852.306145,1759169852.3122466,69.3824291229248,0.9758472442626953,0.3066062927246094,55.94325065612793,56.24985694885254,57.5711727142334,59.11588668823242
1759169852.376245,1759169852.3779035,86.32493019104004,12.117624282836914,0.30493736267089844,55.46855926513672,55.77349662780762,68.06588172912598,68.98045539855957
1759169852.463286,1759169852.4645545,73.85420799255371,1.2714862823486328,0.29349327087402344,56.424617767333984,56.71811103820801,58.324337005615234,59.70931053161621
1759169852.5377944,1759169852.5435984,70.01543045043945,0.016450881958007812,0.29730796813964844,54.698944091796875,54.99625205993652,55.41706085205078,57.14225769042969
1759169852.6079998,1759169852.6092713,78.51600646972656,10.32114028930664,0.29754638671875,55.51934242248535,55.8168888092041,66.30992889404297,67.2769546508789
1759169852.6869075,1759169852.694988,70.90592384338379,1.0409355163574219,0.29921531677246094,55.86361885070801,56.16283416748047,57.55257606506348,58.777570724487305
1759169852.7594397,1759169852.8315709,101.37009620666504,0.965118408203125,0.2849102020263672,22.459983825683594,22.74489402770996,23.919105529785156,28.378009796142578
1759169852.8619866,1759169852.873263,72.98135757446289,2.288341522216797,0.3018379211425781,56.32638931274414,56.62822723388672,59.15570259094238,60.43219566345215
1759169852.9351113,1759169852.936441,75.88410377502441,9.30476188659668,0.091552734375,62.279701232910156,62.371253967285156,71.92325592041016,73.66466522216797
1759169853.0123456,1759169853.0136316,29.529809951782227,0.01811981201171875,0.2872943878173828,22.119998931884766,22.40729331970215,22.822856903076172,24.48129653930664
1759169853.045184,1759169853.1140418,103.78336906433105,2.2487640380859375,0.2880096435546875,22.13907241821289,22.427082061767578,24.845600128173828,28.32341194152832
1759169853.1491005,1759169853.1585677,70.43027877807617,0.225067138671875,0.30231475830078125,55.75132369995117,56.05363845825195,56.62369728088379,58.33005905151367
1759169853.2206135,1759169853.2218835,89.41149711608887,13.522624969482422,0.3032684326171875,55.54080009460449,55.84406852722168,69.40937042236328,70.20735740661621
1759169853.3102055,1759169853.3121948,62.116384506225586,0.02002716064453125,0.30541419982910156,55.61542510986328,55.92083930969238,56.35261535644531,58.05206298828125
1759169853.3724425,1759169853.3836596,77.13198661804199,5.090475082397461,0.29468536376953125,55.79209327697754,56.08677864074707,61.30099296569824,62.470436096191406
1759169853.4570036,1759169853.463937,70.85180282592773,0.6341934204101562,0.2968311309814453,56.858062744140625,57.15489387512207,58.12716484069824,60.0438117980957
1759169853.5280378,1759169853.5373132,73.31132888793945,5.646467208862305,0.2903938293457031,55.27472496032715,55.56511878967285,61.48171424865723,63.00497055053711
1759169853.6014447,1759169853.6027858,76.49493217468262,10.282516479492188,0.08630752563476562,61.004638671875,61.090946197509766,71.6245174407959,73.42195510864258
1759169853.678086,1759169853.6794064,29.686927795410156,0.019550323486328125,0.2868175506591797,22.621870040893555,22.908687591552734,23.33545684814453,24.995088577270508
1759169853.7127633,1759169853.7206059,68.40920448303223,0.2529621124267578,0.29468536376953125,57.0676326751709,57.36231803894043,57.95907974243164,60.24432182312012
1759169853.7859719,1759169853.7978034,72.21436500549316,0.015735626220703125,0.2980232238769531,56.92720413208008,57.22522735595703,57.649850845336914,59.39030647277832
1759169853.8616655,1759169853.8714316,82.51285552978516,3.490924835205078,0.2963542938232422,55.9847354888916,56.281089782714844,59.938907623291016,61.408042907714844
1759169853.9443135,1759169853.9508183,66.50948524475098,0.23031234741210938,0.29540061950683594,56.61630630493164,56.91170692443848,57.480573654174805,59.13543701171875
1759169854.0109665,1759169854.0122712,86.79938316345215,16.810178756713867,0.301361083984375,55.54699897766113,55.84836006164551,72.70431518554688,73.50802421569824
1759169854.0979009,1759169854.1055114,71.09642028808594,0.13899803161621094,0.2925395965576172,55.11641502380371,55.40895462036133,55.91869354248047,57.747602462768555
1759169854.1700377,1759169854.1805494,74.85246658325195,1.247406005859375,0.2906322479248047,55.28426170349121,55.574893951416016,57.14154243469238,58.81094932556152
1759169854.2465816,1759169854.2481315,80.75547218322754,10.200023651123047,0.3039836883544922,55.46450614929199,55.768489837646484,66.13969802856445,67.26336479187012
1759169854.3276052,1759169854.3290763,81.37226104736328,5.486488342285156,0.29730796813964844,56.26845359802246,56.56576156616211,62.1800422668457,63.117265701293945
1759169854.4126687,1759169854.4711955,98.55270385742188,0.37097930908203125,0.28061866760253906,22.492170333862305,22.772789001464844,23.52142333984375,27.93288230895996
1759169854.5120018,1759169854.5139701,72.97134399414062,1.0161399841308594,0.29754638671875,55.64546585083008,55.94301223754883,57.29246139526367,59.370994567871094
1759169854.585111,1759169854.5912976,76.08747482299805,0.1857280731201172,0.3077983856201172,55.796146392822266,56.10394477844238,56.66375160217285,58.38823318481445
1759169854.6613374,1759169854.6628227,77.02493667602539,5.51152229309082,0.3001689910888672,54.976701736450195,55.27687072753906,61.03372573852539,62.32285499572754
1759169854.7384593,1759169854.7434778,68.56727600097656,0.8006095886230469,0.30159950256347656,55.54318428039551,55.844783782958984,57.013750076293945,58.733463287353516
1759169854.8110042,1759169854.8185506,75.44398307800293,1.7726421356201172,0.3077983856201172,56.19001388549805,56.497812271118164,58.54392051696777,59.72003936767578
1759169854.8866417,1759169854.894579,73.33898544311523,3.129243850708008,0.2968311309814453,55.87124824523926,56.1680793762207,59.60416793823242,60.923099517822266
1759169854.9600775,1759169854.9617355,87.6619815826416,12.69388198852539,0.2999305725097656,55.974483489990234,56.2744140625,69.0913200378418,69.9920654296875
1759169855.0479484,1759169855.049595,64.36967849731445,1.1179447174072266,0.2994537353515625,56.55336380004883,56.85281753540039,58.31718444824219,59.9210262298584
1759169855.1125321,1759169855.1250377,78.50027084350586,2.385854721069336,0.34308433532714844,56.69045448303223,57.033538818359375,59.63540077209473,61.16986274719238
1759169855.1911738,1759169855.1986084,77.14676856994629,6.618022918701172,0.2949237823486328,55.809736251831055,56.10466003417969,62.892913818359375,63.9798641204834
1759169855.2693295,1759169855.2813563,80.46650886535645,0.8118152618408203,0.2956390380859375,55.185556411743164,55.4811954498291,56.630849838256836,59.98682975769043
1759169855.349937,1759169855.3562946,68.05014610290527,2.0711421966552734,0.3077983856201172,55.162668228149414,55.47046661376953,57.84940719604492,59.27872657775879
1759169855.4211686,1759169855.4227982,82.26346969604492,11.772394180297852,0.30159950256347656,55.52101135253906,55.82261085510254,67.76905059814453,68.91107559204102
1759169855.503881,1759169855.5112662,72.51143455505371,0.02002716064453125,0.29730796813964844,55.646419525146484,55.94372749328613,56.37478828430176,58.08830261230469
1759169855.5767376,1759169855.5874841,71.89393043518066,0.5555152893066406,0.29015541076660156,55.20915985107422,55.49931526184082,56.4274787902832,58.16912651062012
1759169855.6487703,1759169855.6500578,85.57772636413574,14.203071594238281,0.29730796813964844,55.68385124206543,55.98115921020508,70.23000717163086,71.03896141052246
1759169855.7353873,1759169855.73753,79.97512817382812,2.8603076934814453,0.3097057342529297,56.49924278259277,56.8089485168457,59.981584548950195,61.60593032836914
1759169855.8158112,1759169855.8182814,69.89860534667969,0.01621246337890625,0.29969215393066406,55.22799491882324,55.527687072753906,55.94229698181152,57.44433403015137
1759169855.8858037,1759169855.8936906,77.37326622009277,0.24175643920898438,0.2968311309814453,57.75094032287598,58.04777145385742,58.631181716918945,60.92262268066406
1759169855.963645,1759169855.9705775,71.80666923522949,2.1600723266601562,0.29087066650390625,56.21004104614258,56.500911712646484,58.97974967956543,60.60194969177246
1759169856.0400233,1759169856.0485415,78.56059074401855,0.4165172576904297,0.29468536376953125,56.97035789489746,57.26504325866699,57.95884132385254,59.79013442993164
1759169856.1187208,1759169856.126528,73.62771034240723,0.5753040313720703,0.29206275939941406,55.59206008911133,55.88412284851074,56.82969093322754,58.25972557067871
1759169856.1925435,1759169856.1963675,75.97184181213379,7.436037063598633,0.3018379211425781,55.254459381103516,55.556297302246094,63.205718994140625,64.32819366455078
1759169856.269305,1759169856.2780776,74.26691055297852,2.2563934326171875,0.2994537353515625,55.515289306640625,55.81474304199219,58.40611457824707,59.921979904174805
1759169856.3436697,1759169856.3449225,85.21842956542969,11.62099838256836,0.29587745666503906,56.35643005371094,56.65230751037598,68.31860542297363,69.11826133728027
1759169856.4290345,1759169856.4336526,69.15879249572754,0.18286705017089844,0.29397010803222656,56.708574295043945,57.00254440307617,57.55925178527832,59.34572219848633
1759169856.4986033,1759169856.5108938,76.30562782287598,0.1354217529296875,0.2961158752441406,57.26265907287598,57.55877494812012,58.06612968444824,59.7531795501709
1759169856.575042,1759169856.584276,74.84984397888184,4.9190521240234375,0.2970695495605469,55.56201934814453,55.85908889770508,61.02347373962402,64.5284652709961
1759169856.6500344,1759169856.662427,79.94246482849121,3.490924835205078,0.29659271240234375,55.76920509338379,56.06579780578613,59.82708930969238,61.200857162475586
1759169856.7301667,1759169856.7391922,73.36592674255371,3.7870407104492188,0.3020763397216797,55.59587478637695,55.89795112609863,59.961557388305664,61.31124496459961
1759169856.8074062,1759169856.8090081,85.72912216186523,10.321378707885742,0.2989768981933594,55.39131164550781,55.69028854370117,66.18118286132812,67.31057167053223
1759169856.8932755,1759169856.895036,66.09773635864258,0.5266666412353516,0.2942085266113281,56.33854866027832,56.63275718688965,57.54280090332031,59.13996696472168
1759169856.9601018,1759169856.9704459,79.6351432800293,2.222776412963867,0.2911090850830078,56.92648887634277,57.21759796142578,59.74698066711426,61.092376708984375
1759169857.039834,1759169857.0473824,74.4173526763916,3.560304641723633,0.29921531677246094,56.15043640136719,56.44965171813965,60.292959213256836,61.57493591308594
1759169857.1143906,1759169857.1156669,81.82644844055176,12.497186660766602,0.2894401550292969,55.73773384094238,56.02717399597168,68.56822967529297,69.37003135681152
1759169857.1963556,1759169857.2615128,103.8351058959961,3.1692981719970703,0.29158592224121094,22.311925888061523,22.603511810302734,25.8181095123291,89.34164047241211
1759169857.3003285,1759169857.3073688,70.13583183288574,0.2598762512207031,0.30732154846191406,56.05936050415039,56.366682052612305,56.967735290527344,59.1127872467041
1759169857.3715205,1759169857.3834512,72.87740707397461,1.2447834014892578,0.2944469451904297,55.80782890319824,56.10227584838867,57.68275260925293,58.98141860961914
1759169857.4475756,1759169857.4498148,76.39288902282715,11.137008666992188,0.2923011779785156,56.1220645904541,56.41436576843262,67.68155097961426,68.74823570251465
1759169857.5245337,1759169857.5333812,80.87897300720215,4.642486572265625,0.3292560577392578,57.27696418762207,57.60622024536133,62.45255470275879,63.61889839172363
1759169857.60556,1759169857.6149156,73.82535934448242,1.734018325805664,0.2970695495605469,56.523799896240234,56.82086944580078,58.87413024902344,60.30464172363281
1759169857.6826727,1759169857.6850047,85.82210540771484,8.8653564453125,0.2949237823486328,56.131601333618164,56.4265251159668,65.4606819152832,66.68877601623535
1759169857.7686489,1759169857.7716503,72.83234596252441,0.020265579223632812,0.30612945556640625,54.607391357421875,54.91352081298828,55.341243743896484,57.06143379211426
1759169857.8417392,1759169857.9746747,187.77847290039062,10.51020622253418,0.3077983856201172,31.041622161865234,31.34942054748535,42.134761810302734,68.17340850830078
1759169858.0323722,1759169858.0343082,80.20448684692383,5.547046661376953,0.3063678741455078,52.92153358459473,53.227901458740234,59.05318260192871,60.51445007324219
1759169858.113056,1759169858.1156554,67.0309066772461,0.018596649169921875,0.30612945556640625,58.1822395324707,58.48836898803711,58.91156196594238,60.588836669921875
1759169858.1802776,1759169858.19384,78.54652404785156,1.2309551239013672,0.2970695495605469,55.968284606933594,56.26535415649414,57.83247947692871,59.056997299194336
1759169858.2589629,1759169858.266435,79.83064651489258,5.162477493286133,0.2987384796142578,56.33354187011719,56.632280349731445,62.001705169677734,63.45057487487793
1759169858.3389797,1759169858.3485582,70.86825370788574,0.019311904907226562,0.2970695495605469,56.339263916015625,56.63633346557617,57.062387466430664,58.72511863708496
1759169858.4157176,1759169858.4231212,79.19526100158691,1.9130706787109375,0.29277801513671875,56.6861629486084,56.97894096374512,59.12947654724121,60.971975326538086
1759169858.4950485,1759169858.502919,67.4750804901123,0.02002716064453125,0.3008842468261719,55.52840232849121,55.82928657531738,56.24651908874512,57.71064758300781
1759169858.5647426,1759169858.5670629,81.68220520019531,11.799812316894531,0.28967857360839844,56.396484375,56.6861629486084,68.61042976379395,69.70906257629395
1759169858.6465704,1759169858.652558,69.76151466369629,3.436565399169922,0.2911090850830078,57.20877647399902,57.49988555908203,61.18655204772949,62.95895576477051
1759169858.7168446,1759169858.728055,85.44325828552246,5.654811859130859,0.29921531677246094,57.470083236694336,57.7692985534668,63.602447509765625,64.64290618896484
1759169858.802896,1759169858.8116157,74.77736473083496,0.05459785461425781,0.3020763397216797,56.2899112701416,56.59198760986328,57.05523490905762,58.916330337524414
1759169858.8791294,1759169858.8879695,78.73201370239258,0.6327629089355469,0.2961158752441406,55.733442306518555,56.029558181762695,56.998491287231445,58.829307556152344
1759169858.9588003,1759169858.960641,65.65451622009277,4.927635192871094,0.29850006103515625,55.49287796020508,55.791378021240234,60.961246490478516,62.31808662414551
1759169859.0246115,1759169859.0288126,80.96861839294434,13.527870178222656,0.30493736267089844,55.023908615112305,55.3288459777832,68.90416145324707,69.71168518066406
1759169859.1057682,1759169859.1173267,74.85389709472656,0.57220458984375,0.30612945556640625,56.30326271057129,56.609392166137695,57.56568908691406,59.43131446838379
1759169859.1809578,1759169859.191064,84.30337905883789,4.478931427001953,0.301361083984375,55.739402770996094,56.04076385498047,60.73141098022461,61.83958053588867
1759169859.2654076,1759169859.2711859,73.29988479614258,0.5290508270263672,0.3027915954589844,57.53302574157715,57.83581733703613,58.73584747314453,61.113834381103516
1759169859.3388941,1759169859.346244,72.53718376159668,3.7126541137695312,0.301361083984375,55.66763877868652,55.9689998626709,59.92770195007324,61.4774227142334
1759169859.413803,1759169859.4150805,81.4061164855957,10.784626007080078,0.3199577331542969,56.73098564147949,57.05094337463379,67.87490844726562,68.65811347961426
1759169859.4953444,1759169859.5030189,71.58732414245605,0.6465911865234375,0.2906322479248047,55.98759651184082,56.278228759765625,57.26170539855957,59.14783477783203
1759169859.5688975,1759169859.6382496,105.99446296691895,2.2122859954833984,0.28824806213378906,22.55845069885254,22.846698760986328,25.34031867980957,28.583049774169922
1759169859.675586,1759169859.6769516,75.66618919372559,6.447315216064453,0.3025531768798828,56.052207946777344,56.35476112365723,63.00997734069824,64.0261173248291
1759169859.7513855,1759169859.7600842,73.75073432922363,0.1373291015625,0.2999305725097656,56.42890930175781,56.72883987426758,57.2361946105957,59.27848815917969
1759169859.8253255,1759169859.8341558,73.9126205444336,3.4732818603515625,0.29754638671875,56.79512023925781,57.09266662597656,60.83178520202637,62.30473518371582
1759169859.901118,1759169859.902386,82.72910118103027,12.035846710205078,0.3032684326171875,56.404829025268555,56.70809745788574,68.79138946533203,69.59271430969238
1759169859.9849472,1759169859.9911408,67.85893440246582,0.5619525909423828,0.29087066650390625,56.13899230957031,56.42986297607422,57.36660957336426,59.079647064208984
1759169860.0574174,1759169860.0589986,83.35375785827637,9.146451950073242,0.2999305725097656,56.549787521362305,56.84971809387207,66.16520881652832,67.29412078857422
1759169860.1431186,1759169860.1448233,73.1661319732666,0.5240440368652344,0.3063678741455078,56.10203742980957,56.40840530395508,57.2972297668457,59.08346176147461
1759169860.2164235,1759169860.2218523,67.73996353149414,0.5116462707519531,0.30922889709472656,55.83310127258301,56.142330169677734,57.025909423828125,59.04841423034668
1759169860.284298,1759169860.2948802,83.85038375854492,4.456281661987305,0.3018379211425781,56.22673034667969,56.528568267822266,61.223745346069336,62.81590461730957
1759169860.368287,1759169860.376266,68.09830665588379,0.1380443572998047,0.2963542938232422,56.86664581298828,57.16300010681152,57.674407958984375,59.42201614379883
1759169860.436594,1759169860.4467344,77.80122756958008,6.953954696655273,0.29850006103515625,56.246042251586914,56.54454231262207,63.706398010253906,64.80288505554199
1759169860.5145383,1759169860.5234637,76.8423080444336,7.430076599121094,0.2899169921875,55.889129638671875,56.179046630859375,63.77696990966797,64.83602523803711
1759169860.5921638,1759169860.603563,77.12769508361816,3.724336624145508,0.3108978271484375,56.366920471191406,56.677818298339844,60.61053276062012,61.96856498718262
1759169860.6727495,1759169860.6742933,84.48195457458496,10.257959365844727,0.30684471130371094,56.000471115112305,56.307315826416016,66.73979759216309,67.87514686584473
1759169860.7574136,1759169860.7591045,77.11482048034668,2.718687057495117,0.2951622009277344,55.40919303894043,55.704355239868164,58.72368812561035,59.975385665893555
1759169860.8346684,1759169860.8359592,63.09986114501953,2.2602081298828125,0.3044605255126953,55.443763732910156,55.74822425842285,58.28452110290527,59.60893630981445
1759169860.8979106,1759169860.9050927,82.9019546508789,9.994983673095703,0.29087066650390625,56.81467056274414,57.10554122924805,67.27194786071777,68.328857421875
1759169860.9814212,1759169860.9924707,77.22711563110352,0.019311904907226562,0.3218650817871094,56.62655830383301,56.94842338562012,57.37566947937012,59.10229682922363
1759169861.0601761,1759169861.0674338,71.09761238098145,2.5167465209960938,0.293731689453125,56.386709213256836,56.68044090270996,59.4639778137207,60.79721450805664
1759169861.1314125,1759169861.1327074,85.35385131835938,14.827489852905273,0.2923011779785156,55.516719818115234,55.80902099609375,70.76549530029297,71.68936729431152
1759169861.217174,1759169861.283582,93.5966968536377,0.7317066192626953,0.2963542938232422,22.27926254272461,22.57561683654785,23.645877838134766,28.470277786254883
1759169861.3130214,1759169861.3258476,77.15892791748047,1.657724380493164,0.2913475036621094,57.41739273071289,57.708740234375,59.74602699279785,61.228275299072266
1759169861.3911612,1759169861.4010854,79.94246482849121,5.2051544189453125,0.3483295440673828,56.50949478149414,56.85782432556152,62.306880950927734,63.77291679382324
1759169861.4712386,1759169861.4724855,86.47584915161133,10.806083679199219,0.3008842468261719,56.80346488952637,57.10434913635254,67.95358657836914,68.73369216918945
1759169861.5578957,1759169861.5609326,69.69523429870605,0.05555152893066406,0.2923011779785156,56.427001953125,56.719303131103516,57.181358337402344,58.94899368286133
1759169861.6277344,1759169861.6291044,76.13062858581543,8.757352828979492,0.2963542938232422,56.08081817626953,56.37717247009277,65.30189514160156,66.21503829956055
1759169861.7040012,1759169861.70926,73.85492324829102,5.877494812011719,0.2903938293457031,55.785179138183594,56.0755729675293,62.16239929199219,63.92264366149902
1759169861.7825227,1759169861.850635,95.7639217376709,0.8046627044677734,0.2849102020263672,22.588729858398438,22.873640060424805,23.961544036865234,28.77020835876465
1759169861.880567,1759169861.8818445,87.47386932373047,12.567996978759766,0.30159950256347656,55.9687614440918,56.27036094665527,68.96400451660156,69.82994079589844
1759169861.9694567,1759169861.971193,68.91536712646484,0.03719329833984375,0.29349327087402344,55.14073371887207,55.434226989746094,55.87339401245117,57.647705078125
1759169862.0385206,1759169862.0455751,78.14478874206543,2.0313262939453125,0.30422210693359375,56.23435974121094,56.53858184814453,58.901309967041016,60.14251708984375
1759169862.1168015,1759169862.1263318,71.53511047363281,4.585504531860352,0.2944469451904297,50.7047176361084,50.99916458129883,55.826663970947266,57.411909103393555
1759169862.1890745,1759169862.2595649,99.8537540435791,1.9037723541259766,0.30112266540527344,22.266149520874023,22.567272186279297,24.776935577392578,28.293848037719727
1759169862.290235,1759169862.3024225,80.40952682495117,2.589702606201172,0.2963542938232422,54.96668815612793,55.26304244995117,58.16197395324707,59.59677696228027
1759169862.3707356,1759169862.3720255,82.17048645019531,8.903741836547852,0.2949237823486328,55.73010444641113,56.025028228759766,64.971923828125,65.76347351074219
1759169862.4534836,1759169862.4568353,70.2204704284668,0.04172325134277344,0.30303001403808594,56.456565856933594,56.75959587097168,57.205915451049805,58.84909629821777
1759169862.5238404,1759169862.5282087,77.41189002990723,6.153345108032227,0.29969215393066406,55.76777458190918,56.067466735839844,62.46352195739746,63.91024589538574
1759169862.6013935,1759169862.6081016,76.37739181518555,3.4956932067871094,0.29921531677246094,56.569576263427734,56.868791580200195,60.643672943115234,62.0265007019043
1759169862.6779494,1759169862.6883392,72.36909866333008,0.7543563842773438,0.29397010803222656,55.7401180267334,56.034088134765625,57.09338188171387,59.07297134399414
1759169862.7508683,1759169862.7624054,74.56421852111816,2.810239791870117,0.3037452697753906,56.795597076416016,57.099342346191406,60.12606620788574,62.09063529968262
1759169862.827309,1759169862.828578,82.2300910949707,13.940095901489258,0.29730796813964844,55.696964263916016,55.994272232055664,69.976806640625,70.76883316040039
1759169862.9108076,1759169862.9171448,72.36456871032715,2.29644775390625,0.3025531768798828,54.932594299316406,55.23514747619629,57.866573333740234,59.60488319396973
1759169862.9833088,1759169862.9916708,74.06878471374512,4.137754440307617,0.2956390380859375,54.96954917907715,55.265188217163086,59.671640396118164,60.99748611450195
1759169863.0588992,1759169863.069707,85.13379096984863,2.5091171264648438,0.29468536376953125,55.56654930114746,55.86123466491699,58.61616134643555,61.475515365600586
1759169863.1441717,1759169863.14865,75.0579833984375,0.18930435180664062,0.3147125244140625,64.38469886779785,64.69941139221191,65.25397300720215,66.95365905761719
1759169863.2193272,1759169863.2357185,84.02848243713379,13.807058334350586,0.3025531768798828,42.81783103942871,43.120384216308594,57.05523490905762,57.95764923095703
1759169863.3034503,1759169863.3163555,63.70997428894043,2.6884078979492188,0.2944469451904297,40.3904914855957,40.68493843078613,43.61391067504883,44.7540283203125
1759169863.3733883,1759169863.4380078,92.74435043334961,1.9338130950927734,0.28228759765625,22.795915603637695,23.078203201293945,25.246620178222656,28.731822967529297
1759169863.4706378,1759169863.4816206,74.77450370788574,0.17309188842773438,0.2875328063964844,57.61432647705078,57.901859283447266,58.44449996948242,60.79888343811035
1759169863.5514996,1759169863.559286,76.53188705444336,0.039577484130859375,0.29778480529785156,56.8234920501709,57.12127685546875,57.570695877075195,59.22722816467285
1759169863.6282248,1759169863.6294763,75.75201988220215,7.86137580871582,0.3075599670410156,55.754899978637695,56.06245994567871,64.09740447998047,64.99886512756348
1759169863.704211,1759169863.7113636,74.65910911560059,2.493143081665039,0.2980232238769531,56.86759948730469,57.16562271118164,59.9977970123291,61.81001663208008
1759169863.7790174,1759169863.780681,84.65385437011719,10.353326797485352,0.2930164337158203,56.91862106323242,57.21163749694824,67.68512725830078,68.59135627746582
1759169863.8648942,1759169863.8693392,70.80912590026855,0.019311904907226562,0.3256797790527344,55.345773696899414,55.67145347595215,56.09607696533203,57.41071701049805
1759169863.9358342,1759169864.0047581,96.88973426818848,0.9710788726806641,0.2834796905517578,22.36199378967285,22.64547348022461,23.82826805114746,28.646230697631836
1759169864.0349393,1759169864.047853,75.41704177856445,1.4281272888183594,0.29349327087402344,54.87465858459473,55.16815185546875,56.90503120422363,59.45396423339844
1759169864.1111414,1759169864.1123953,88.59729766845703,12.995719909667969,0.2980232238769531,55.79781532287598,56.09583854675293,69.13971900939941,69.93246078491211
1759169864.2003622,1759169864.2023518,63.893795013427734,0.019073486328125,0.30612945556640625,56.267499923706055,56.57362937927246,56.98990821838379,58.319807052612305
1759169864.2673237,1759169864.2685673,85.70528030395508,9.971380233764648,0.3006458282470703,61.97857856750488,62.27922439575195,72.2956657409668,73.12655448913574
1759169864.3531594,1759169864.4203851,95.7939624786377,0.7107257843017578,0.2930164337158203,24.104833602905273,24.397850036621094,25.421857833862305,30.29775619506836
1759169864.4544072,1759169864.4640472,75.15692710876465,1.2362003326416016,0.3082752227783203,56.592464447021484,56.900739669799805,58.377742767333984,60.00018119812012
1759169864.5296986,1759169864.5309815,86.5166187286377,12.204170227050781,0.31113624572753906,55.328369140625,55.63950538635254,67.96956062316895,68.89533996582031
1759169864.6177578,1759169864.619731,66.52331352233887,0.02002716064453125,0.29015541076660156,55.886268615722656,56.17642402648926,56.60057067871094,58.25972557067871
1759169864.684416,1759169864.6935616,78.50456237792969,3.046751022338867,0.2951622009277344,55.808067321777344,56.10322952270508,59.453725814819336,60.832977294921875
1759169864.763559,1759169864.7727995,80.44910430908203,0.3185272216796875,0.2994537353515625,56.763410568237305,57.06286430358887,57.69634246826172,59.600114822387695
1759169864.8441427,1759169864.8497982,70.75262069702148,0.2319812774658203,0.2951622009277344,57.586669921875,57.881832122802734,58.45189094543457,60.3337287902832
1759169864.9162524,1759169864.925644,74.10621643066406,3.082752227783203,0.29349327087402344,55.95207214355469,56.24556541442871,59.625864028930664,60.8372688293457
1759169864.9905536,1759169865.0014079,83.20116996765137,4.453420639038086,0.2913475036621094,55.49740791320801,55.78875541687012,60.4856014251709,62.61873245239258
1759169865.073893,1759169865.0800412,67.04044342041016,2.624988555908203,0.30159950256347656,55.034637451171875,55.33623695373535,58.267831802368164,59.5698356628418
1759169865.1423857,1759169865.143667,78.63545417785645,14.483213424682617,0.29206275939941406,56.47993087768555,56.77199363708496,71.30122184753418,72.11017608642578
1759169865.2213523,1759169865.2929313,101.69816017150879,2.2652149200439453,0.2841949462890625,22.759675979614258,23.04387092590332,25.480031967163086,28.673887252807617
1759169865.3255568,1759169865.3271644,72.50690460205078,11.118173599243164,0.29850006103515625,56.61487579345703,56.91337585449219,68.20249557495117,69.3366527557373
1759169865.3985817,1759169865.406803,81.48598670959473,8.95380973815918,0.28896331787109375,57.045698165893555,57.33466148376465,66.45941734313965,68.84932518005371
1759169865.482785,1759169865.4851239,79.65540885925293,8.449077606201172,0.29206275939941406,56.414127349853516,56.70619010925293,65.32573699951172,66.57195091247559
1759169865.562587,1759169865.5697486,68.66931915283203,1.1658668518066406,0.2963542938232422,55.59587478637695,55.892229080200195,57.36351013183594,58.95352363586426
