Timestamp,ArrivalTime,TotalTime(ms),WaitTime(ms),DecodeTime(ms),InferTime(ms),ServerComputeTime(ms),TotalServer(ms),Total
1759120446.6851115,1759120446.7471573,3025.533676147461,1.5270709991455078,0.20742416381835938,2958.2359790802,2958.4434032440186,2960.033178329468,2965.2905464172363
1759120449.7108471,1759120449.7161703,216.78781509399414,0.02193450927734375,0.102996826171875,195.01161575317383,195.1146125793457,210.29949188232422,210.96253395080566
1759120449.9278476,1759120449.930139,200.70695877075195,0.020265579223632812,0.09632110595703125,183.08734893798828,183.1836700439453,197.29375839233398,197.94940948486328
1759120450.1287367,1759120450.1306791,197.19767570495605,0.021219253540039062,0.091552734375,193.91965866088867,194.01121139526367,194.09942626953125,194.78678703308105
1759120450.3261364,1759120450.3351305,218.95432472229004,0.0209808349609375,0.10204315185546875,200.65641403198242,200.7584571838379,200.83189010620117,201.54142379760742
1759120450.5452704,1759120450.5619998,236.28759384155273,0.018596649169921875,0.08726119995117188,218.30391883850098,218.39118003845215,218.461275100708,219.07639503479004
1759120450.7817414,1759120450.78354,238.71397972106934,0.018596649169921875,0.08869171142578125,225.6295680999756,225.71825981140137,230.83186149597168,231.49991035461426
1759120451.0206463,1759120451.036136,237.89620399475098,0.019788742065429688,0.08940696716308594,189.70823287963867,189.79763984680176,221.29201889038086,221.9078540802002
1759120451.2586753,1759120451.2631392,213.40012550354004,0.02002716064453125,0.0896453857421875,200.16050338745117,200.25014877319336,200.32596588134766,200.93727111816406
1759120451.4722557,1759120451.473972,231.28342628479004,0.021457672119140625,0.09107589721679688,226.36699676513672,226.45807266235352,226.53603553771973,227.1592617034912
1759120451.7037544,1759120451.7091072,210.07895469665527,0.019073486328125,0.08678436279296875,203.58562469482422,203.6724090576172,203.7346363067627,204.30350303649902
1759120451.9155238,1759120451.9171765,175.54163932800293,0.017404556274414062,0.08940696716308594,155.90476989746094,155.99417686462402,156.06403350830078,156.64911270141602
1759120452.0912395,1759120452.0950744,198.75383377075195,0.018835067749023438,0.08988380432128906,186.11693382263184,186.20681762695312,186.27405166625977,186.86270713806152
1759120452.290296,1759120452.2930756,216.14694595336914,0.01811981201171875,0.08654594421386719,184.56196784973145,184.6485137939453,184.71360206604004,185.3179931640625
1759120452.506616,1759120452.5082054,222.33819961547852,0.018596649169921875,0.08440017700195312,210.21509170532227,210.29949188232422,210.36410331726074,210.91461181640625
1759120452.7291315,1759120452.730799,252.4116039276123,0.017881393432617188,0.08320808410644531,249.69244003295898,249.77564811706543,249.8331069946289,250.40197372436523
1759120452.981655,1759120452.9832923,224.96533393859863,0.017404556274414062,0.09131431579589844,222.25475311279297,222.34606742858887,222.40567207336426,222.95379638671875
1759120453.2067351,1759120453.212099,189.8479461669922,0.0171661376953125,0.08082389831542969,176.65743827819824,176.73826217651367,176.79738998413086,177.3388385772705
1759120453.3967462,1759120453.412904,220.9911346435547,0.01621246337890625,0.08082389831542969,180.42278289794922,180.50360679626465,180.556058883667,181.06436729431152
1759120453.6194582,1759120453.629892,211.61794662475586,0.015497207641601562,0.07700920104980469,195.3125,195.3895092010498,195.44076919555664,195.94287872314453
1759120453.8312302,1759120453.8438988,245.27978897094727,0.01621246337890625,0.07867813110351562,229.34818267822266,229.42686080932617,229.4909954071045,230.00669479370117
1759120454.0766768,1759120454.0782096,205.763578414917,0.0171661376953125,0.0858306884765625,196.56038284301758,196.64621353149414,196.70915603637695,197.2367763519287
1759120454.282555,1759120454.2841408,203.0344009399414,0.017881393432617188,0.0820159912109375,196.79808616638184,196.88010215759277,196.9435214996338,197.47591018676758
1759120454.4857488,1759120454.5099063,248.25263023376465,0.016450881958007812,0.080108642578125,223.04272651672363,223.12283515930176,223.17981719970703,223.70433807373047
1759120454.7341583,1759120454.7357566,245.61214447021484,0.017642974853515625,0.08034706115722656,242.95806884765625,243.03841590881348,243.09825897216797,243.6521053314209
1759120454.9798813,1759120454.9849794,259.6261501312256,0.0171661376953125,0.07867813110351562,222.9900360107422,223.0687141418457,223.12331199645996,223.65760803222656
1759120455.239671,1759120455.2413173,217.18645095825195,0.017404556274414062,0.095367431640625,214.51663970947266,214.61200714111328,214.66732025146484,215.18492698669434
1759120455.457017,1759120455.4751346,451.1852264404297,0.0286102294921875,0.080108642578125,212.68820762634277,212.7683162689209,213.02509307861328,433.23683738708496
1759120455.908375,1759120455.9189377,196.5658664703369,0.01621246337890625,0.07987022399902344,160.2625846862793,160.34245491027832,160.400390625,185.04977226257324
1759120456.1052961,1759120456.1079857,204.209566116333,0.016450881958007812,0.0782012939453125,180.21345138549805,180.29165267944336,180.35316467285156,199.48172569274902
1759120456.3096678,1759120456.3111508,198.8527774810791,0.01621246337890625,0.08153915405273438,192.90423393249512,192.98577308654785,193.04728507995605,193.54963302612305
1759120456.5086799,1759120456.5101666,192.8274631500244,0.015497207641601562,0.07963180541992188,190.34171104431152,190.42134284973145,190.47975540161133,190.97566604614258
1759120456.7016602,1759120456.703209,217.77796745300293,0.015974044799804688,0.07987022399902344,212.2330665588379,212.3129367828369,212.36920356750488,212.89372444152832
1759120456.919613,1759120456.921103,189.33963775634766,0.016927719116210938,0.07867813110351562,176.95093154907227,177.02960968017578,177.08802223205566,177.62494087219238
1759120457.1092336,1759120457.1120439,218.24193000793457,0.015974044799804688,0.07891654968261719,214.3864631652832,214.46537971496582,214.5233154296875,215.05498886108398
1759120457.32763,1759120457.343895,230.95703125,0.016689300537109375,0.07796287536621094,184.8459243774414,184.92388725280762,184.97920036315918,185.48107147216797
1759120457.5587444,1759120457.5602229,214.69521522521973,0.016450881958007812,0.08153915405273438,203.60517501831055,203.68671417236328,203.7498950958252,204.26535606384277
1759120457.773604,1759120457.775165,204.33688163757324,0.015974044799804688,0.07605552673339844,197.68524169921875,197.76129722595215,197.81851768493652,198.31514358520508
1759120457.9780974,1759120457.9948838,237.40649223327637,0.016450881958007812,0.07653236389160156,212.77856826782227,212.85510063171387,212.90826797485352,213.40537071228027
1759120458.2156885,1759120458.217181,215.90161323547363,0.016689300537109375,0.07843971252441406,206.01844787597656,206.09688758850098,206.15458488464355,206.6631317138672
1759120458.4317489,1759120458.4489048,235.01825332641602,0.015497207641601562,0.0782012939453125,185.20140647888184,185.27960777282715,185.3315830230713,217.47636795043945
1759120458.6669388,1759120458.6719873,196.563720703125,0.01621246337890625,0.07653236389160156,187.849760055542,187.9262924194336,187.9878044128418,188.48872184753418
1759120458.8636632,1759120458.8668425,191.35713577270508,0.0171661376953125,0.07939338684082031,177.74558067321777,177.8249740600586,177.88434028625488,178.38811874389648
1759120459.055181,1759120459.05999,230.32402992248535,0.016927719116210938,0.07843971252441406,186.92302703857422,187.00146675109863,187.06154823303223,187.56341934204102
1759120459.2856672,1759120459.287147,209.55801010131836,0.015974044799804688,0.0782012939453125,207.05866813659668,207.136869430542,207.19432830810547,207.71527290344238
1759120459.4954004,1759120459.5016668,408.7483882904053,0.025272369384765625,0.07748603820800781,191.04790687561035,191.12539291381836,191.3747787475586,378.5247802734375
1759120459.9044702,1759120459.9179416,224.24030303955078,0.015735626220703125,0.07653236389160156,202.5432586669922,202.6197910308838,202.67748832702637,203.18102836608887
1759120460.128872,1759120460.1319876,224.8821258544922,0.01621246337890625,0.07915496826171875,190.04416465759277,190.1233196258545,190.2294158935547,218.552827835083
1759120460.3540354,1759120460.3567326,442.4912929534912,0.026702880859375,0.0762939453125,220.73078155517578,220.80707550048828,221.06242179870605,430.3429126739502
1759120460.7966895,1759120460.8179433,249.2656707763672,0.015735626220703125,0.07796287536621094,211.79556846618652,211.87353134155273,211.93194389343262,212.43834495544434
1759120461.0461164,1759120461.065385,251.0981559753418,0.029325485229492188,0.07867813110351562,224.39265251159668,224.4713306427002,224.5471477508545,237.63632774353027
1759120461.2973251,1759120461.2988997,237.53762245178223,0.015974044799804688,0.07843971252441406,234.91883277893066,234.99727249145508,235.05473136901855,235.57019233703613
1759120461.5350244,1759120461.5400581,234.79318618774414,0.015497207641601562,0.07796287536621094,203.3226490020752,203.4006118774414,203.45830917358398,203.98497581481934
1759120461.7699873,1759120461.7716444,229.83121871948242,0.016927719116210938,0.08034706115722656,224.0588665008545,224.13921356201172,224.1978645324707,224.73907470703125
1759120461.9999838,1759120462.0298305,249.8471736907959,0.019550323486328125,0.08153915405273438,203.810453414917,203.89199256896973,203.9647102355957,229.00819778442383
1759120462.2499924,1759120462.2559738,237.94054985046387,0.016450881958007812,0.07843971252441406,230.62467575073242,230.70311546325684,230.7608127593994,231.2605381011963
1759120462.4882338,1759120462.490236,218.20807456970215,0.016689300537109375,0.07843971252441406,214.13445472717285,214.21289443969727,214.26892280578613,214.7693634033203
1759120462.7066047,1759120462.7096665,224.898099899292,0.015497207641601562,0.07605552673339844,213.44995498657227,213.52601051330566,213.58537673950195,214.1118049621582
1759120462.9316626,1759120462.9331517,215.9249782562256,0.017642974853515625,0.07677078247070312,200.19030570983887,200.26707649230957,200.33025741577148,200.8352279663086
1759120463.1477492,1759120463.1608915,220.89242935180664,0.016689300537109375,0.07605552673339844,203.67789268493652,203.75394821166992,203.80711555480957,204.30827140808105
1759120463.3688009,1759120463.389141,220.66497802734375,0.01621246337890625,0.07772445678710938,194.09704208374023,194.17476654052734,194.23460960388184,194.73552703857422
1759120463.5896251,1759120463.593034,220.32618522644043,0.017642974853515625,0.08225440979003906,177.48451232910156,177.5667667388916,177.6285171508789,178.16495895385742
1759120463.810108,1759120463.811611,221.39883041381836,0.017642974853515625,0.08130073547363281,215.72113037109375,215.80243110656738,215.8677577972412,216.39299392700195
1759120464.0316699,1759120464.0332756,208.2538604736328,0.01621246337890625,0.08821487426757812,195.74904441833496,195.83725929260254,195.89734077453613,196.41852378845215
1759120464.2415192,1759120464.2446449,177.41918563842773,0.016450881958007812,0.07724761962890625,172.07765579223633,172.15490341186523,172.21307754516602,172.72210121154785
1759120464.4190958,1759120464.420568,161.53240203857422,0.015974044799804688,0.07891654968261719,155.95245361328125,156.03137016296387,156.08906745910645,156.59546852111816
1759120464.580782,1759120464.5860035,225.16155242919922,0.016927719116210938,0.08177757263183594,212.69941329956055,212.78119087219238,212.8434181213379,213.37342262268066
1759120464.8060532,1759120464.8098974,209.87462997436523,0.016689300537109375,0.0762939453125,201.83706283569336,201.91335678100586,201.97486877441406,202.47459411621094
1759120465.0160851,1759120465.0210109,230.42011260986328,0.018358230590820312,0.09250640869140625,193.4642791748047,193.5567855834961,193.62163543701172,194.14854049682617
1759120465.246619,1759120465.2520397,223.32215309143066,0.017404556274414062,0.07891654968261719,213.77062797546387,213.84954452514648,213.90652656555176,214.42627906799316
1759120465.470098,1759120465.4716237,221.12512588500977,0.017404556274414062,0.07987022399902344,186.53559684753418,186.6154670715332,186.6779327392578,219.25711631774902
1759120465.6913342,1759120465.6928751,216.7673110961914,0.016450881958007812,0.095367431640625,207.60321617126465,207.69858360290527,207.75890350341797,208.27960968017578
1759120465.9082558,1759120465.9115987,225.32272338867188,0.015497207641601562,0.07915496826171875,220.9339141845703,221.01306915283203,221.07291221618652,221.60601615905762
1759120466.1337373,1759120466.1354265,205.33061027526855,0.019550323486328125,0.08177757263183594,181.5192699432373,181.60104751586914,181.66399002075195,182.28578567504883
1759120466.339225,1759120466.3407292,187.54839897155762,0.01811981201171875,0.08082389831542969,175.28533935546875,175.36616325378418,175.42362213134766,175.95672607421875
1759120466.5269303,1759120466.5311058,201.3535499572754,0.016450881958007812,0.0762939453125,196.17009162902832,196.24638557434082,196.30861282348633,196.81811332702637
1759120466.7284534,1759120466.7299154,210.80875396728516,0.015974044799804688,0.07843971252441406,182.24239349365234,182.32083320617676,182.38019943237305,208.93335342407227
1759120466.9396303,1759120466.9430294,218.3682918548584,0.016450881958007812,0.08440017700195312,209.37705039978027,209.46145057678223,209.52892303466797,210.0818157196045
1759120467.1581666,1759120467.1598275,260.8449459075928,0.018596649169921875,0.08893013000488281,248.45099449157715,248.53992462158203,248.60787391662598,249.19533729553223
1759120467.419179,1759120467.4240618,225.82030296325684,0.017404556274414062,0.08344650268554688,189.77928161621094,189.86272811889648,189.9240016937256,190.48047065734863
1759120467.6451597,1759120467.6466963,224.45917129516602,0.017881393432617188,0.0820159912109375,221.8618392944336,221.94385528564453,222.00536727905273,222.5513458251953
1759120467.8697815,1759120467.8713555,236.47236824035645,0.03361701965332031,0.08058547973632812,216.17650985717773,216.25709533691406,216.32981300354004,216.86029434204102
1759120468.1064267,1759120468.1092844,214.5059108734131,0.016689300537109375,0.095367431640625,205.99699020385742,206.09235763549805,206.15363121032715,206.66027069091797
1759120468.3234603,1759120468.3249514,203.99045944213867,0.016450881958007812,0.07987022399902344,196.57301902770996,196.65288925170898,196.71368598937988,197.23129272460938
1759120468.5276144,1759120468.74905,441.8816566467285,0.10633468627929688,0.072479248046875,190.09160995483398,190.16408920288086,190.35887718200684,428.94816398620605
1759120468.969656,1759120469.1826324,438.42482566833496,0.039577484130859375,0.07843971252441406,224.37310218811035,224.45154190063477,224.5352268218994,249.9716281890869
1759120469.4082417,1759120469.4098363,221.8148708343506,0.016689300537109375,0.07843971252441406,219.1774845123291,219.25592422485352,219.3138599395752,219.83742713928223
1759120469.630216,1759120469.6339912,214.874267578125,0.016450881958007812,0.07939338684082031,210.0667953491211,210.1461887359619,210.20960807800293,210.71648597717285
1759120469.8452482,1759120469.8749096,246.62017822265625,0.015974044799804688,0.07772445678710938,185.1661205291748,185.2438449859619,185.29868125915527,185.8062744140625
1759120470.092024,1759120470.093533,205.69181442260742,0.017642974853515625,0.07963180541992188,172.4228858947754,172.5025177001953,172.5621223449707,173.09045791625977
1759120470.2978737,1759120470.2993472,219.56515312194824,0.03337860107421875,0.080108642578125,213.74034881591797,213.8204574584961,213.8967514038086,214.40649032592773
1759120470.517605,1759120470.5210567,199.8612880706787,0.01621246337890625,0.07843971252441406,195.3904628753662,195.46890258789062,195.52993774414062,196.0306167602539
1759120470.717624,1759120470.7191598,209.00249481201172,0.015497207641601562,0.07748603820800781,206.40325546264648,206.4807415008545,206.53533935546875,207.04960823059082
1759120470.926809,1759120470.931905,199.6922492980957,0.01621246337890625,0.07915496826171875,181.54478073120117,181.6239356994629,181.68282508850098,182.1904182434082
1759120471.1270573,1759120471.1299589,397.5329399108887,0.027894973754882812,0.07867813110351562,176.89108848571777,176.9697666168213,177.24919319152832,380.71179389953613
1759120471.5247564,1759120471.5274794,201.13229751586914,0.018835067749023438,0.07843971252441406,191.5428638458252,191.6213035583496,191.73455238342285,192.94452667236328
1759120471.726048,1759120471.7276416,213.45043182373047,0.015974044799804688,0.07724761962890625,201.76076889038086,201.83801651000977,201.89929008483887,202.41451263427734
1759120471.9396584,1759120471.9424508,344.5456027984619,0.026464462280273438,0.07843971252441406,150.3586769104004,150.4371166229248,150.6936550140381,337.3849391937256
1759120472.2843761,1759120472.2888708,175.5959987640381,0.016689300537109375,0.07843971252441406,169.53086853027344,169.60930824279785,169.66867446899414,170.16243934631348
1759120472.462694,1759120472.4653544,445.15061378479004,0.04839897155761719,0.08082389831542969,208.01258087158203,208.09340476989746,208.3721160888672,407.9582691192627
1759120472.9092472,1759120472.9123275,424.25990104675293,203.09066772460938,0.07295608520507812,177.5074005126953,177.5803565979004,380.8259963989258,418.001651763916
1759120473.3337946,1759120473.3364787,434.0503215789795,0.027179718017578125,0.07843971252441406,209.42115783691406,209.49959754943848,209.75542068481445,422.6524829864502
1759120473.7679617,1759120473.7699926,248.54397773742676,0.015974044799804688,0.07772445678710938,232.2397232055664,232.31744766235352,234.76624488830566,235.54372787475586
1759120474.016675,1759120474.0220177,216.2797451019287,0.01621246337890625,0.07653236389160156,200.97875595092773,201.05528831481934,201.11680030822754,201.62057876586914
1759120474.233069,1759120474.2346585,226.53985023498535,0.01621246337890625,0.07772445678710938,214.1249179840088,214.2026424407959,214.25676345825195,214.80035781860352
1759120474.4597712,1759120474.4650502,241.04738235473633,0.016450881958007812,0.07677078247070312,231.6761016845703,231.75287246704102,231.80866241455078,232.32078552246094
1759120474.7009842,1759120474.702522,221.45700454711914,0.016689300537109375,0.08034706115722656,216.4759635925293,216.55631065368652,216.6152000427246,217.13662147521973
1759120474.9225576,1759120474.9240696,232.61499404907227,0.016689300537109375,0.07963180541992188,229.51078414916992,229.59041595458984,229.65216636657715,230.1468849182129
1759120475.1554112,1759120475.1597037,229.5365333557129,0.01621246337890625,0.07843971252441406,196.69342041015625,196.77186012268066,196.83241844177246,197.3433494567871
1759120475.3851092,1759120475.3891144,233.64663124084473,0.015974044799804688,0.07700920104980469,192.94381141662598,193.02082061767578,193.07470321655273,193.56679916381836
1759120475.618918,1759120475.6260557,225.02541542053223,0.019073486328125,0.0762939453125,205.9648036956787,206.0410976409912,206.1159610748291,206.94684982299805
1759120475.844105,1759120475.845613,183.82692337036133,0.016450881958007812,0.07772445678710938,178.2221794128418,178.2999038696289,178.3599853515625,178.8768768310547
1759120476.0280893,1759120476.0295746,225.85511207580566,0.016450881958007812,0.09226799011230469,220.0143337249756,220.1066017150879,220.16668319702148,220.69501876831055
1759120476.2540538,1759120476.255626,242.3841953277588,0.015735626220703125,0.07915496826171875,237.52117156982422,237.60032653808594,237.654447555542,238.19422721862793
1759120476.4966033,1759120476.4980898,208.89830589294434,0.015974044799804688,0.07843971252441406,203.68051528930664,203.75895500183105,203.82070541381836,204.31160926818848
1759120476.7056623,1759120476.707129,222.22399711608887,0.016689300537109375,0.07915496826171875,217.940092086792,218.0192470550537,218.08552742004395,218.60909461975098
1759120476.930512,1759120476.9489996,229.0976047515869,0.017881393432617188,0.08082389831542969,205.7514190673828,205.83224296569824,205.89590072631836,206.41660690307617
1759120477.1597707,1759120477.1613486,228.8355827331543,0.0247955322265625,0.07987022399902344,219.81573104858398,219.895601272583,219.95949745178223,220.5064296722412
1759120477.3887634,1759120477.3903265,236.1598014831543,0.016450881958007812,22.102832794189453,210.33668518066406,232.43951797485352,232.49340057373047,233.02602767944336
1759120477.6251204,1759120477.6267676,238.8927936553955,0.015735626220703125,0.07915496826171875,227.7059555053711,227.7851104736328,227.8575897216797,228.45125198364258
1759120477.8641703,1759120478.1092737,469.35534477233887,0.11181831359863281,0.07271766662597656,219.04277801513672,219.1154956817627,219.31767463684082,460.4513645172119
1759120478.3336906,1759120478.5470245,435.75549125671387,0.08845329284667969,0.07700920104980469,202.48174667358398,202.5587558746338,214.40386772155762,426.769495010376
1759120478.7695663,1759120478.774958,225.39329528808594,0.015497207641601562,0.07772445678710938,192.83246994018555,192.91019439697266,192.97051429748535,193.45998764038086
1759120478.9965136,1759120478.9980226,204.7421932220459,0.01621246337890625,0.07748603820800781,190.0475025177002,190.1249885559082,190.1867389678955,190.68431854248047
1759120479.2013881,1759120479.2029486,184.0987205505371,0.016689300537109375,0.07915496826171875,181.50639533996582,181.58555030822754,181.64658546447754,182.1579933166504
1759120479.3856456,1759120479.3872066,209.29551124572754,0.01621246337890625,0.07915496826171875,204.89215850830078,204.9713134765625,205.02471923828125,205.56235313415527
1759120479.5950992,1759120479.6149032,236.48953437805176,0.016450881958007812,0.07915496826171875,185.01973152160645,185.09888648986816,185.15467643737793,185.65607070922852
1759120479.8317509,1759120479.8332415,227.83565521240234,0.016450881958007812,0.07915496826171875,221.4524745941162,221.53162956237793,221.59528732299805,222.09858894348145
1759120480.0597486,1759120480.0613103,238.19470405578613,0.015974044799804688,0.08893013000488281,204.9400806427002,205.02901077270508,205.08980751037598,205.6117057800293
1759120480.298102,1759120480.299705,234.84253883361816,0.01621246337890625,0.07796287536621094,198.0454921722412,198.12345504760742,198.17781448364258,198.7133026123047
1759120480.5331025,1759120480.5370877,217.56267547607422,0.015735626220703125,0.07748603820800781,212.56470680236816,212.64219284057617,212.69607543945312,213.1962776184082
1759120480.7508204,1759120480.752858,207.12733268737793,0.015735626220703125,0.07891654968261719,185.835599899292,185.9145164489746,185.9750747680664,186.47003173828125
1759120480.9582796,1759120480.9609828,170.6533432006836,0.016450881958007812,0.07772445678710938,158.4796905517578,158.55741500854492,158.6158275604248,159.1174602508545
1759120481.1290898,1759120481.132512,179.69322204589844,0.0171661376953125,0.080108642578125,172.1057891845703,172.18589782714844,172.2407341003418,172.7590560913086
1759120481.3089402,1759120481.3104932,194.990873336792,0.016927719116210938,0.07724761962890625,179.32820320129395,179.40545082092285,179.46600914001465,179.98051643371582
1759120481.5040898,1759120481.5064945,204.84519004821777,0.017881393432617188,0.07677078247070312,194.44656372070312,194.52333450317383,194.58532333374023,195.10531425476074
1759120481.7090938,1759120481.710579,228.92069816589355,0.01621246337890625,0.07605552673339844,193.56679916381836,193.64285469055176,193.70603561401367,194.23484802246094
1759120481.9381893,1759120481.9414165,220.32666206359863,0.017404556274414062,0.08344650268554688,214.93268013000488,215.01612663269043,215.08407592773438,215.651273727417
1759120482.1586862,1759120482.162299,221.56071662902832,0.018358230590820312,0.10061264038085938,177.80804634094238,177.90865898132324,177.97422409057617,217.5600528717041
1759120482.3804266,1759120482.3959317,233.01267623901367,0.017881393432617188,0.08082389831542969,189.32318687438965,189.40401077270508,211.86089515686035,212.42785453796387
1759120482.6136065,1759120482.836884,448.4882354736328,0.10251998901367188,0.07534027099609375,218.9655303955078,219.0408706665039,219.22945976257324,445.50108909606934
1759120483.064547,1759120483.0717545,617.976188659668,194.06628608703613,0.07319450378417969,197.51358032226562,197.5867748260498,583.3632946014404,606.7430973052979
1759120483.6838531,1759120483.8804646,596.733570098877,0.11992454528808594,0.07319450378417969,178.35712432861328,178.43031883239746,178.82037162780762,588.5682106018066
1759120484.2807448,1759120484.2835054,447.2818374633789,0.028848648071289062,0.07653236389160156,203.34529876708984,203.42183113098145,203.68361473083496,412.10293769836426
1759120484.7281718,1759120484.7310066,451.42078399658203,0.027894973754882812,0.08249282836914062,205.14273643493652,205.22522926330566,205.48486709594727,415.6336784362793
1759120485.1797621,1759120485.1833298,449.4507312774658,0.025987625122070312,0.08678436279296875,206.24232292175293,206.3291072845459,206.58516883850098,417.072057723999
1759120485.6293926,1759120485.6412265,459.7437381744385,0.025987625122070312,0.07796287536621094,208.36377143859863,208.44173431396484,208.6949348449707,407.3755741119385
1759120486.0897756,1759120486.0913763,251.03998184204102,0.018358230590820312,0.07796287536621094,246.25349044799805,246.33145332336426,246.39415740966797,246.90818786621094
1759120486.340992,1759120486.3425896,233.5205078125,0.016927719116210938,0.08106231689453125,223.28424453735352,223.36530685424805,223.4208583831787,223.94680976867676
1759120486.5746841,1759120486.5761943,192.25382804870605,0.01621246337890625,0.07748603820800781,179.66151237487793,179.73899841308594,179.79121208190918,180.28950691223145
1759120486.767097,1759120486.7691915,208.50515365600586,0.015735626220703125,0.07700920104980469,195.220947265625,195.2979564666748,195.35279273986816,195.87087631225586
1759120486.975795,1759120486.983931,197.44873046875,0.017881393432617188,0.11396408081054688,174.78179931640625,174.8957633972168,174.9587059020996,175.4913330078125
1759120487.1734118,1759120487.1748896,211.1823558807373,0.017404556274414062,0.07796287536621094,190.44947624206543,190.52743911743164,190.59252738952637,191.10655784606934
1759120487.3847048,1759120487.3862832,209.0444564819336,0.016689300537109375,0.0972747802734375,206.39324188232422,206.49051666259766,206.55107498168945,207.08942413330078
1759120487.5955062,1759120487.5969746,216.16435050964355,0.016689300537109375,0.0782012939453125,213.6697769165039,213.74797821044922,213.81068229675293,214.30563926696777
1759120487.81183,1759120487.8133159,207.672119140625,0.016927719116210938,0.09560585021972656,198.46439361572266,198.55999946594238,198.6227035522461,199.1260051727295
1759120488.0196116,1759120488.0211396,221.2820053100586,0.016450881958007812,0.07939338684082031,218.7361717224121,218.81556510925293,218.87755393981934,219.37823295593262
1759120488.2410035,1759120488.2549593,220.65305709838867,0.015974044799804688,0.07486343383789062,205.69586753845215,205.77073097229004,205.8248519897461,206.315279006958
1759120488.4617655,1759120488.4632514,195.4784393310547,0.016927719116210938,0.07867813110351562,163.95974159240723,164.03841972351074,164.10064697265625,193.64190101623535
1759120488.6574137,1759120488.6619828,198.3489990234375,0.01621246337890625,0.0782012939453125,192.75641441345215,192.83461570739746,192.89326667785645,193.39728355407715
1759120488.8559184,1759120488.857389,205.0178050994873,0.017404556274414062,0.07843971252441406,187.27517127990723,187.35361099243164,187.41321563720703,187.93773651123047
1759120489.0610905,1759120489.0625572,211.6255760192871,0.016927719116210938,0.07677078247070312,199.0506649017334,199.1274356842041,199.1903781890869,199.70107078552246
1759120489.2728212,1759120489.2790623,233.11185836791992,0.016689300537109375,0.0782012939453125,221.17161750793457,221.24981880187988,221.3149070739746,221.8315601348877
1759120489.5060875,1759120489.5147967,223.25563430786133,0.0171661376953125,0.07653236389160156,186.8278980255127,186.9044303894043,186.96212768554688,187.50667572021484
1759120489.7295134,1759120489.7309797,194.92816925048828,0.016689300537109375,0.07891654968261719,188.35926055908203,188.43817710876465,188.50159645080566,189.009428024292
1759120489.9245968,1759120489.9297595,228.35993766784668,0.016689300537109375,13.608217239379883,208.6620330810547,222.27025032043457,222.32556343078613,222.84984588623047
1759120490.1531155,1759120490.1708925,246.8245029449463,0.01621246337890625,0.07748603820800781,190.8102035522461,190.8876895904541,190.94443321228027,191.4389133453369
1759120490.4000964,1759120490.401669,227.40697860717773,0.015974044799804688,0.07748603820800781,194.5786476135254,194.6561336517334,223.73604774475098,224.27868843078613
1759120490.6276655,1759120490.6307974,198.35186004638672,0.015974044799804688,0.07796287536621094,194.23317909240723,194.31114196777344,194.37050819396973,194.86546516418457
1759120490.8261745,1759120490.827823,198.17113876342773,0.017881393432617188,0.07677078247070312,188.0800724029541,188.1568431854248,188.21978569030762,188.7497901916504
1759120491.0245168,1759120491.0260582,214.41316604614258,0.016450881958007812,0.07796287536621094,210.2823257446289,210.36028861999512,210.4189395904541,210.9384536743164
1759120491.2390835,1759120491.2419899,194.78464126586914,0.016689300537109375,0.08082389831542969,190.8719539642334,190.95277786254883,191.01381301879883,191.51759147644043
1759120491.4341578,1759120491.4369848,210.76655387878418,0.015735626220703125,0.07867813110351562,177.63781547546387,177.71649360656738,177.77729034423828,178.27749252319336
1759120491.6450791,1759120491.6466265,239.90392684936523,0.016450881958007812,0.07891654968261719,232.8965663909912,232.97548294067383,233.03651809692383,233.59060287475586
1759120491.8851485,1759120491.904918,224.23100471496582,0.01621246337890625,0.08153915405273438,203.42659950256348,203.5081386566162,203.56225967407227,204.0879726409912
1759120492.1095378,1759120492.1110246,209.2125415802002,0.016689300537109375,0.07915496826171875,196.58827781677246,196.66743278503418,196.72822952270508,197.2484588623047
1759120492.3189075,1759120492.3203955,215.81029891967773,0.01811981201171875,0.07915496826171875,213.29665184020996,213.37580680847168,213.4404182434082,213.96899223327637
1759120492.5348825,1759120492.538994,205.7664394378662,0.017404556274414062,0.07724761962890625,200.62947273254395,200.70672035217285,200.7620334625244,201.2784481048584
1759120492.7407584,1759120492.7422712,190.92082977294922,0.015974044799804688,0.08797645568847656,185.06479263305664,185.15276908874512,185.21404266357422,185.70709228515625
1759120492.9320025,1759120492.9349656,229.95352745056152,0.01621246337890625,0.0762939453125,181.2906265258789,181.3669204711914,222.87964820861816,223.405122756958
1759120493.1621122,1759120493.167118,248.72350692749023,0.016689300537109375,0.07772445678710938,227.8156280517578,227.89335250854492,227.9491424560547,228.48272323608398
1759120493.4109936,1759120493.4124923,219.5606231689453,0.018596649169921875,0.08273124694824219,216.9942855834961,217.07701683044434,217.14377403259277,217.71597862243652
1759120493.6307116,1759120493.6321926,209.51414108276367,0.016450881958007812,0.08106231689453125,206.9864273071289,207.06748962402344,207.12876319885254,207.6702117919922
1759120493.8404093,1759120493.8419545,231.78553581237793,0.015497207641601562,0.07963180541992188,212.23115921020508,212.310791015625,212.36300468444824,212.90302276611328
1759120494.0723512,1759120494.0740612,211.43698692321777,0.018358230590820312,0.07700920104980469,205.46793937683105,205.54494857788086,205.60908317565918,206.21871948242188
1759120494.2839472,1759120494.2874727,397.4766731262207,0.026941299438476562,0.07748603820800781,184.13901329040527,184.21649932861328,184.4789981842041,374.42660331726074
1759120494.6815884,1759120494.6882393,408.74528884887695,0.026464462280273438,0.08225440979003906,202.39615440368652,202.47840881347656,202.74090766906738,401.74150466918945
1759120495.093667,1759120495.096391,400.58302879333496,0.028371810913085938,0.07963180541992188,185.136079788208,185.21571159362793,185.47654151916504,363.5597229003906
1759120495.4944296,1759120495.495924,213.23776245117188,0.016927719116210938,0.07963180541992188,210.6938362121582,210.77346801757812,210.83712577819824,211.33828163146973
1759120495.7078278,1759120495.709401,234.68375205993652,0.016689300537109375,0.07891654968261719,221.4975357055664,221.57645225524902,221.6324806213379,222.17106819152832
1759120495.9426877,1759120495.9603157,262.6996040344238,0.020503997802734375,0.08368492126464844,213.9291763305664,214.01286125183105,244.11511421203613,247.81346321105957
1759120496.2055461,1759120496.2071273,222.20158576965332,0.018596649169921875,0.07891654968261719,198.12941551208496,198.20833206176758,198.2746124267578,198.81010055541992
1759120496.427909,1759120496.4532256,246.0310459136963,0.02002716064453125,0.07963180541992188,207.1080207824707,207.18765258789062,207.24916458129883,231.31513595581055
1759120496.6740985,1759120496.6756728,231.84990882873535,0.015974044799804688,0.07748603820800781,195.05810737609863,195.13559341430664,195.18733024597168,195.74570655822754
1759120496.906109,1759120496.9076288,238.0998134613037,0.017404556274414062,0.07915496826171875,191.33663177490234,191.41578674316406,191.48945808410645,192.07525253295898
1759120497.1443968,1759120497.1460621,256.73747062683105,0.018835067749023438,0.08463859558105469,225.9354591369629,226.02009773254395,226.07994079589844,226.64189338684082
1759120497.4013004,1759120497.4060469,212.46790885925293,0.018596649169921875,0.08273124694824219,190.63472747802734,190.7174587249756,190.78373908996582,191.33400917053223
1759120497.6139357,1759120497.619041,189.03541564941406,0.016450881958007812,0.08273124694824219,173.00009727478027,173.08282852172852,173.1407642364502,173.65646362304688
1759120497.8031297,1759120497.8070023,216.37248992919922,0.016450881958007812,0.07939338684082031,208.45985412597656,208.53924751281738,208.6007595062256,209.14816856384277
1759120498.0196621,1759120498.0211525,251.77788734436035,0.016689300537109375,0.07915496826171875,201.66659355163574,201.74574851989746,201.80416107177734,202.3143768310547
1759120498.2716076,1759120498.2750554,231.86135292053223,0.016927719116210938,0.07772445678710938,227.3845672607422,227.4622917175293,227.51641273498535,228.0278205871582
1759120498.503627,1759120498.5051897,226.87983512878418,0.016927719116210938,0.07557868957519531,219.3775177001953,219.4530963897705,219.50721740722656,220.02911567687988
1759120498.7306683,1759120498.7321603,216.2625789642334,0.0171661376953125,0.08082389831542969,210.526704788208,210.60752868652344,210.66761016845703,211.19952201843262
1759120498.947087,1759120498.9511356,238.1892204284668,0.015735626220703125,0.07772445678710938,233.12115669250488,233.198881149292,233.2601547241211,233.7789535522461
1759120499.185403,1759120499.1869948,230.1013469696045,0.016689300537109375,0.0782012939453125,226.33004188537598,226.4082431793213,226.46474838256836,226.9885540008545
1759120499.4156659,1759120499.4199865,215.26575088500977,0.015974044799804688,0.07700920104980469,200.29473304748535,200.37174224853516,200.43301582336426,206.90059661865234
1759120499.6310887,1759120499.634987,189.1345977783203,0.015974044799804688,0.07939338684082031,177.49309539794922,177.57248878479004,177.63257026672363,178.14183235168457
1759120499.8214598,1759120499.8229303,223.47712516784668,0.016450881958007812,0.0858306884765625,212.70179748535156,212.78762817382812,212.84985542297363,213.35291862487793
1759120500.0450926,1759120500.0498834,248.04329872131348,0.01621246337890625,0.07724761962890625,242.24138259887695,242.31863021850586,242.37346649169922,242.91658401489258
1759120500.2932909,1759120500.2948728,233.71005058288574,0.01621246337890625,0.07915496826171875,231.11748695373535,231.19664192199707,231.25195503234863,231.80484771728516
1759120500.5271547,1759120500.5417087,584.3744277954102,0.042438507080078125,0.0782012939453125,174.6969223022461,174.7751235961914,175.0631332397461,565.7315254211426
1759120501.11165,1759120501.1180615,430.27663230895996,0.02765655517578125,0.07891654968261719,200.64973831176758,200.7286548614502,200.99258422851562,394.8078155517578
1759120501.5420969,1759120501.5454564,213.99903297424316,0.024080276489257812,0.07843971252441406,209.60307121276855,209.68151092529297,209.75089073181152,211.38834953308105
1759120501.7562594,1759120501.7578428,223.6788272857666,0.015974044799804688,0.07867813110351562,221.055269241333,221.13394737243652,221.18735313415527,221.73666954040527
1759120501.9835248,1759120501.9851081,244.25196647644043,0.015735626220703125,0.07748603820800781,204.44130897521973,204.51879501342773,204.5736312866211,205.08432388305664
1759120502.22794,1759120502.2317133,443.225622177124,0.03552436828613281,0.0782012939453125,191.51687622070312,191.59507751464844,223.97899627685547,226.6087532043457
1759120502.6740186,1759120502.6828954,263.73291015625,0.015974044799804688,0.0762939453125,236.10520362854004,236.18149757385254,236.30070686340332,239.08042907714844
1759120502.9379134,1759120503.1417756,436.525821685791,0.03886222839355469,0.07867813110351562,193.88127326965332,193.95995140075684,194.04149055480957,229.75754737854004
1759120503.3758838,1759120503.3790658,224.3974208831787,0.015497207641601562,0.07700920104980469,187.1654987335205,187.2425079345703,220.31903266906738,220.84808349609375
1759120503.6004531,1759120503.6019518,185.49776077270508,0.017404556274414062,0.07843971252441406,177.11615562438965,177.19459533691406,177.25276947021484,177.7501106262207
1759120503.78611,1759120503.7875898,165.35139083862305,0.016450881958007812,0.07891654968261719,162.8286838531494,162.90760040283203,162.9650592803955,163.4976863861084
1759120503.9516203,1759120503.9550312,164.61706161499023,0.017404556274414062,0.12159347534179688,156.85081481933594,156.97240829467773,157.03225135803223,157.56773948669434
1759120504.120463,1759120504.1219792,183.1212043762207,0.01621246337890625,0.080108642578125,179.0597438812256,179.1398525238037,179.19611930847168,179.71348762512207
1759120504.3037407,1759120504.3052206,195.80745697021484,0.01621246337890625,0.08416175842285156,193.29476356506348,193.37892532348633,193.44019889831543,193.93539428710938
1759120504.4997041,1759120504.50118,181.2756061553955,0.015497207641601562,0.07677078247070312,157.78207778930664,157.85884857177734,157.91749954223633,158.42008590698242
1759120504.683505,1759120504.684984,160.57348251342773,0.016689300537109375,0.07581710815429688,158.10132026672363,158.17713737487793,158.23793411254883,158.7378978729248
1759120504.844232,1759120504.8457248,197.70479202270508,0.016927719116210938,0.0762939453125,193.47524642944336,193.55154037475586,193.61281394958496,194.14782524108887
1759120505.04209,1759120505.0469956,201.84087753295898,0.015974044799804688,0.07700920104980469,182.24787712097168,182.32488632202148,182.39283561706543,182.8923225402832
1759120505.2440395,1759120505.2455983,214.89286422729492,0.0152587890625,0.08034706115722656,198.81629943847656,198.8966464996338,198.95386695861816,199.48339462280273
1759120505.4590862,1759120505.4641347,228.1167507171631,0.0152587890625,0.07867813110351562,221.67611122131348,221.754789352417,221.80676460266113,222.3215103149414
1759120505.6874201,1759120505.6909466,218.43218803405762,0.016927719116210938,0.07867813110351562,184.26275253295898,184.3414306640625,184.4015121459961,211.6985321044922
1759120505.906008,1759120506.1004987,397.43924140930176,0.10085105895996094,0.07271766662597656,182.75928497314453,182.8320026397705,183.01677703857422,386.9812488555908
1759120506.303616,1759120506.3127337,237.46347427368164,0.021457672119140625,0.07748603820800781,227.3261547088623,227.4036407470703,227.46777534484863,233.88934135437012
1759120506.5412362,1759120506.5495796,237.72501945495605,0.017881393432617188,0.07772445678710938,228.24716567993164,228.32489013671875,228.39045524597168,228.91950607299805
1759120506.7792706,1759120506.7980025,263.23914527893066,0.018596649169921875,0.08130073547363281,240.42701721191406,240.5083179473877,240.5695915222168,241.0895824432373
1759120507.0426755,1759120507.0442543,236.5567684173584,0.017642974853515625,0.08058547973632812,202.37159729003906,202.4521827697754,202.51107215881348,203.0177116394043
1759120507.2794027,1759120507.289007,210.53457260131836,0.016689300537109375,0.0782012939453125,196.68126106262207,196.75946235656738,196.81453704833984,197.3416805267334
1759120507.4915094,1759120507.4930222,178.84302139282227,0.016689300537109375,0.08058547973632812,176.30505561828613,176.38564109802246,176.44500732421875,176.96619033813477
1759120507.6705213,1759120507.6720843,234.9851131439209,0.016450881958007812,0.07939338684082031,231.20760917663574,231.28700256347656,231.34326934814453,231.88304901123047
1759120507.9056685,1759120507.910084,212.55850791931152,0.016927719116210938,0.07939338684082031,207.14092254638672,207.22031593322754,207.28182792663574,207.7770233154297
1759120508.1183968,1759120508.1199434,239.5493984222412,0.016450881958007812,0.07772445678710938,201.86877250671387,201.94649696350098,201.99847221374512,202.51870155334473
1759120508.3580542,1759120508.3620179,204.88500595092773,0.016450881958007812,0.08034706115722656,199.9058723449707,199.98621940612793,200.04510879516602,200.5467414855957
1759120508.5630965,1759120508.5645742,199.82194900512695,0.015735626220703125,0.07748603820800781,185.99367141723633,186.07115745544434,186.12980842590332,186.63454055786133
1759120508.7632053,1759120508.775892,230.30400276184082,0.016927719116210938,0.08034706115722656,216.6004180908203,216.68076515197754,216.74370765686035,217.24772453308105
1759120508.9936173,1759120508.996759,216.88580513000488,0.017881393432617188,0.07677078247070312,205.39236068725586,205.46913146972656,205.52539825439453,206.04491233825684
1759120509.2106152,1759120509.239452,215.32368659973145,0.020265579223632812,0.07677078247070312,181.4889907836914,181.5657615661621,181.63776397705078,206.36558532714844
1759120509.426097,1759120509.4275913,181.24818801879883,0.017404556274414062,0.08058547973632812,178.7574291229248,178.83801460266113,178.90143394470215,179.41856384277344
1759120509.6075165,1759120509.6089807,201.26700401306152,0.016927719116210938,0.0782012939453125,197.7088451385498,197.78704643249512,197.84879684448242,198.3480453491211
1759120509.8088894,1759120509.8133254,195.0690746307373,0.015974044799804688,0.09298324584960938,181.84852600097656,181.94150924682617,182.00159072875977,182.50751495361328
1759120510.0041227,1759120510.0056324,197.98612594604492,0.016689300537109375,0.1266002655029297,195.4171657562256,195.54376602172852,195.6014633178711,196.1343288421631
1759120510.202264,1759120510.2307334,253.90362739562988,0.020742416381835938,0.07772445678710938,224.43842887878418,224.5161533355713,224.5810031890869,227.0188331604004
1759120510.456322,1759120510.4578803,224.43032264709473,0.01621246337890625,0.0762939453125,215.6240940093994,215.7003879547119,215.75450897216797,216.27068519592285
1759120510.6809096,1759120510.6840544,217.03219413757324,0.01621246337890625,0.07939338684082031,207.26561546325684,207.34500885009766,207.40318298339844,207.90648460388184
1759120510.8992133,1759120511.08898,623.3880519866943,0.11944770812988281,0.07104873657226562,219.3772792816162,219.44832801818848,219.84553337097168,613.574743270874
1759120511.5227642,1759120511.8809118,541.7664051055908,0.13399124145507812,0.07009506225585938,150.44379234313965,150.5138874053955,164.52503204345703,514.0759944915771
1759120512.0647101,1759120512.0663548,216.7356014251709,0.03457069396972656,0.08320808410644531,203.39727401733398,203.48048210144043,203.55987548828125,204.08892631530762
1759120512.2816262,1759120512.2832985,184.35215950012207,0.018358230590820312,0.10085105895996094,172.78623580932617,172.88708686828613,172.95098304748535,173.5062599182129
1759120512.4661386,1759120512.4702005,219.36964988708496,0.0171661376953125,0.08106231689453125,188.9209747314453,189.00203704833984,189.0583038330078,189.6069049835205
1759120512.6856747,1759120512.6872385,187.41965293884277,0.01811981201171875,0.07796287536621094,184.83448028564453,184.91244316101074,184.97610092163086,185.5006217956543
1759120512.8732536,1759120512.8747635,212.68463134765625,0.016689300537109375,0.07987022399902344,194.1676139831543,194.24748420715332,194.31066513061523,194.8225498199463
1759120513.086095,1759120513.0877092,248.02255630493164,0.01621246337890625,0.07891654968261719,213.35983276367188,213.4387493133545,213.49191665649414,214.02335166931152
1759120513.3342798,1759120513.3389812,194.80085372924805,0.015735626220703125,0.08106231689453125,189.10980224609375,189.19086456298828,189.24832344055176,189.75090980529785
1759120513.5292442,1759120513.5307374,194.89550590515137,0.015974044799804688,0.07915496826171875,192.307710647583,192.38686561584473,192.52610206604004,193.06254386901855
1759120513.7243006,1759120513.7258036,214.1399383544922,0.016450881958007812,0.08153915405273438,204.73241806030273,204.81395721435547,204.86974716186523,205.38687705993652
1759120513.9386055,1759120513.9400826,218.0333137512207,0.017404556274414062,0.07534027099609375,205.02543449401855,205.10077476501465,205.16228675842285,205.68156242370605
1759120514.1567976,1759120514.1728847,235.20374298095703,0.0171661376953125,0.0782012939453125,184.0827465057373,184.16094779968262,184.21649932861328,184.71622467041016
1759120514.392156,1759120514.3939636,199.7683048248291,0.016689300537109375,0.07915496826171875,168.49422454833984,168.57337951660156,168.63298416137695,169.13652420043945
1759120514.5920792,1759120514.5936282,195.07312774658203,0.0171661376953125,0.0858306884765625,192.52872467041016,192.61455535888672,192.66915321350098,193.2065486907959
1759120514.7885065,1759120514.7899945,217.99564361572266,0.01621246337890625,0.0782012939453125,181.8993091583252,181.9775104522705,182.0359230041504,182.53087997436523
1759120515.0066636,1759120515.0081882,241.9281005859375,0.015974044799804688,0.07915496826171875,214.7350311279297,214.8141860961914,214.86926078796387,215.36731719970703
1759120515.2487032,1759120515.250305,243.80159378051758,0.015974044799804688,0.08511543273925781,204.6525478363037,204.73766326904297,204.79321479797363,205.31296730041504
1759120515.492668,1759120515.5387459,267.9250240325928,0.019788742065429688,0.07843971252441406,215.30413627624512,215.38257598876953,215.45028686523438,253.31783294677734
1759120515.7607543,1759120515.776884,238.33155632019043,0.01621246337890625,0.07939338684082031,221.20189666748047,221.2812900543213,221.33636474609375,221.83895111083984
1759120515.9992437,1759120516.0039902,240.26107788085938,0.016927719116210938,0.07581710815429688,204.19645309448242,204.27227020263672,204.3311595916748,204.84042167663574
1759120516.2396698,1759120516.2430317,224.37500953674316,0.016927719116210938,0.07557868957519531,184.53025817871094,184.60583686828613,184.65948104858398,185.15992164611816
1759120516.4642482,1759120516.4657733,200.69026947021484,0.015497207641601562,0.07796287536621094,193.27688217163086,193.35484504699707,193.41373443603516,193.91250610351562
1759120516.6650982,1759120516.6665888,184.88574028015137,0.016689300537109375,0.07772445678710938,182.41143226623535,182.48915672302246,182.54828453063965,183.0577850341797
1759120516.8501391,1759120516.8518875,212.01014518737793,0.016689300537109375,0.07772445678710938,209.22112464904785,209.29884910583496,209.35916900634766,209.8987102508545
1759120517.062305,1759120517.0638564,239.1982078552246,0.016450881958007812,0.07987022399902344,202.58545875549316,202.6653289794922,202.72064208984375,203.24444770812988
1759120517.3016627,1759120517.3031228,208.92024040222168,0.01621246337890625,0.07843971252441406,199.13077354431152,199.20921325683594,199.27644729614258,199.7697353363037
1759120517.5107424,1759120517.5125592,214.6015167236328,0.015735626220703125,0.0762939453125,211.78889274597168,211.86518669128418,211.92598342895508,212.46767044067383
1759120517.72547,1759120517.7417364,216.05801582336426,0.015974044799804688,0.07486343383789062,198.78387451171875,198.85873794555664,198.91071319580078,199.41425323486328
1759120517.9418092,1759120517.9449906,190.4149055480957,0.016927719116210938,0.08106231689453125,181.8854808807373,181.96654319763184,182.0206642150879,182.5246810913086
1759120518.133734,1759120518.5380948,655.2677154541016,0.04506111145019531,0.07748603820800781,213.4997844696045,213.5772705078125,213.70887756347656,220.84879875183105
1759120518.7891717,1759120518.7907305,206.33959770202637,0.017404556274414062,0.08249282836914062,199.4028091430664,199.48530197143555,199.54466819763184,200.14476776123047
1759120518.9956763,1759120519.1898596,434.7710609436035,0.10395050048828125,0.07176399230957031,206.09378814697266,206.16555213928223,206.35652542114258,427.93822288513184
1759120519.4306216,1759120519.6450906,418.8232421875,0.1087188720703125,0.07414817810058594,198.1213092803955,198.1954574584961,198.3942985534668,412.1878147125244
1759120519.8496187,1759120519.851199,205.14798164367676,0.016689300537109375,0.07581710815429688,194.46325302124023,194.53907012939453,194.5936679840088,195.115327835083
1759120520.0549304,1759120520.056838,212.5098705291748,0.01621246337890625,0.07963180541992188,207.77559280395508,207.855224609375,207.9155445098877,208.41646194458008
1759120520.267556,1759120520.2690804,228.72185707092285,0.016927719116210938,0.07843971252441406,194.14567947387695,194.22411918640137,226.30643844604492,226.81951522827148
1759120520.499507,1759120520.5050328,193.79329681396484,0.01621246337890625,0.07653236389160156,187.26515769958496,187.34169006347656,187.40296363830566,187.89935111999512
1759120520.6934752,1759120520.694963,200.35409927368164,0.01811981201171875,0.07748603820800781,197.85475730895996,197.93224334716797,197.99327850341797,198.49777221679688
1759120520.8939857,1759120520.9030108,272.6318836212158,0.016927719116210938,0.07653236389160156,258.5618495941162,258.6383819580078,258.7239742279053,259.39202308654785
1759120521.1667788,1759120521.1720035,226.46689414978027,0.016689300537109375,0.07891654968261719,220.19672393798828,220.2756404876709,220.3385829925537,220.86262702941895
1759120521.3934207,1759120521.3949628,264.359712600708,0.016450881958007812,0.07939338684082031,222.67961502075195,222.75900840759277,222.81432151794434,223.33192825317383
1759120521.6593823,1759120521.8501883,418.1356430053711,0.10776519775390625,28.2442569732666,185.90855598449707,214.15281295776367,214.37907218933105,409.6989631652832
1759120522.0776875,1759120522.1138017,274.77359771728516,0.021457672119140625,0.07891654968261719,234.24553871154785,234.32445526123047,234.39359664916992,267.14134216308594
1759120522.3526337,1759120522.3660252,224.17140007019043,0.017642974853515625,0.07963180541992188,207.62300491333008,207.70263671875,207.75890350341797,208.2662582397461
1759120522.576972,1759120522.578491,196.4404582977295,0.017642974853515625,0.08130073547363281,193.8619613647461,193.94326210021973,194.00596618652344,194.53120231628418
1759120522.773698,1759120522.78098,249.3283748626709,0.016689300537109375,0.08177757263183594,218.6727523803711,218.75452995300293,218.81461143493652,219.32077407836914
1759120523.0231836,1759120523.0247521,210.6783390045166,0.016927719116210938,0.07891654968261719,206.5882682800293,206.6671848297119,206.72178268432617,207.25035667419434
1759120523.2340236,1759120523.2360222,183.91036987304688,0.01811981201171875,0.07939338684082031,177.30140686035156,177.38080024719238,177.4425506591797,178.0412197113037
1759120523.418092,1759120523.4219766,225.41189193725586,0.016927719116210938,0.08511543273925781,217.50664710998535,217.5917625427246,217.6523208618164,218.15156936645508
1759120523.643664,1759120523.6570022,255.5370330810547,0.016450881958007812,0.07915496826171875,240.10896682739258,240.1881217956543,240.24367332458496,240.78917503356934
1759120523.9005022,1759120523.9019804,217.3900604248047,0.017642974853515625,0.08082389831542969,214.90144729614258,214.982271194458,215.0435447692871,215.55328369140625
1759120524.118048,1759120524.1195972,223.7699031829834,0.016689300537109375,0.07987022399902344,216.62068367004395,216.70055389404297,216.75586700439453,217.31877326965332
1759120524.3419745,1759120524.3434515,183.94899368286133,0.016927719116210938,0.07700920104980469,178.25818061828613,178.33518981933594,178.39527130126953,178.9093017578125
1759120524.5260797,1759120524.5293198,199.74994659423828,0.016450881958007812,0.09584426879882812,195.3902244567871,195.48606872558594,195.54376602172852,196.07138633728027
1759120524.7295065,1759120524.7309473,196.66242599487305,0.01621246337890625,0.07653236389160156,167.18459129333496,167.26112365722656,167.31929779052734,194.84472274780273
1759120524.926324,1759120524.9299324,165.6017303466797,0.016927719116210938,0.08034706115722656,157.60469436645508,157.6850414276123,157.7436923980713,158.25533866882324
1759120525.0920825,1759120525.0935802,174.58486557006836,0.016689300537109375,0.07843971252441406,172.07622528076172,172.15466499328613,172.21522331237793,172.72377014160156
1759120525.2669492,1759120525.2699711,168.63226890563965,0.016450881958007812,0.08344650268554688,159.20138359069824,159.2848300933838,159.34348106384277,159.84630584716797
1759120525.4357383,1759120525.4371917,171.4763641357422,0.016689300537109375,0.0762939453125,145.99609375,146.0723876953125,146.1329460144043,169.66772079467773
1759120525.607388,1759120525.6110227,195.25647163391113,0.016927719116210938,0.102996826171875,190.56248664855957,190.66548347473145,190.72651863098145,191.26558303833008
1759120525.802752,1759120525.805968,183.55202674865723,0.016450881958007812,0.080108642578125,165.72809219360352,165.80820083618164,165.86637496948242,166.36204719543457
1759120525.9864752,1759120525.9879348,230.75127601623535,0.016450881958007812,0.0820159912109375,206.15053176879883,206.23254776000977,206.29358291625977,228.90162467956543
1759120526.2173376,1759120526.2189066,205.16514778137207,0.017642974853515625,0.080108642578125,201.05934143066406,201.1394500732422,201.2045383453369,201.7199993133545
1759120526.422666,1759120526.4241636,225.77476501464844,0.017404556274414062,0.08034706115722656,197.05986976623535,197.14021682739258,220.22294998168945,220.7474708557129
1759120526.6486068,1759120526.6562958,230.17239570617676,0.016689300537109375,0.095367431640625,211.80486679077148,211.9002342224121,211.95554733276367,212.4626636505127
1759120526.8789535,1759120526.8804562,200.0420093536377,0.016689300537109375,0.07796287536621094,197.33881950378418,197.4167823791504,197.49069213867188,198.03547859191895
1759120527.079173,1759120527.0830667,255.2814483642578,0.018596649169921875,0.08535385131835938,245.26619911193848,245.35155296325684,245.4228401184082,245.99123001098633
1759120527.3346252,1759120527.358944,250.3523826599121,0.01811981201171875,0.08273124694824219,221.88735008239746,221.9700813293457,222.0284938812256,222.57065773010254
1759120527.5851417,1759120527.5867963,263.6687755584717,0.017881393432617188,0.08082389831542969,260.53929328918457,260.6201171875,260.73384284973145,261.4858150482178
1759120527.8489728,1759120528.0756092,457.0026397705078,11.841773986816406,0.08034706115722656,205.1699161529541,205.25026321411133,225.81958770751953,451.45726203918457
1759120528.3074694,1759120528.3090794,245.49174308776855,0.015974044799804688,0.07891654968261719,207.76653289794922,207.84544944763184,207.9002857208252,208.4205150604248
1759120528.5531251,1759120528.5578895,223.35338592529297,0.016689300537109375,0.07915496826171875,216.1397933959961,216.2189483642578,216.27545356750488,216.77255630493164
1759120528.7766497,1759120528.778142,221.29583358764648,0.018358230590820312,0.08153915405273438,215.47412872314453,215.55566787719727,215.61813354492188,216.12310409545898
1759120528.9981072,1759120528.9998195,213.6669158935547,0.018358230590820312,0.08177757263183594,210.93106269836426,211.0128402709961,211.07792854309082,211.70282363891602
1759120529.2118847,1759120529.2134042,211.74025535583496,0.019073486328125,0.07939338684082031,209.19013023376465,209.26952362060547,209.3338966369629,209.85054969787598
1759120529.423784,1759120529.4252474,207.46564865112305,0.0171661376953125,0.07867813110351562,175.95863342285156,176.03731155395508,176.0997772216797,205.63268661499023
1759120529.631424,1759120529.632901,185.61077117919922,0.017404556274414062,0.080108642578125,163.09499740600586,163.17510604858398,163.23399543762207,163.72942924499512
1759120529.8171444,1759120529.818844,194.24200057983398,0.017642974853515625,0.07891654968261719,160.22872924804688,160.3076457977295,160.36653518676758,160.87770462036133
1759120530.0115445,1759120530.013328,193.45974922180176,0.018835067749023438,0.08821487426757812,190.62256813049316,190.71078300476074,190.77372550964355,191.30468368530273
1759120530.2051132,1759120530.2066555,190.8125877380371,0.016450881958007812,0.09202957153320312,184.33666229248047,184.42869186401367,184.48472023010254,185.00757217407227
1759120530.3960822,1759120530.397777,190.98424911499023,0.019788742065429688,0.07987022399902344,182.7101707458496,182.79004096984863,182.85274505615234,183.47525596618652
1759120530.587222,1759120530.5887167,226.21941566467285,0.019788742065429688,0.07915496826171875,220.75462341308594,220.83377838134766,220.89695930480957,221.41766548156738
1759120530.8135529,1759120530.8189619,211.03906631469727,0.015497207641601562,0.0782012939453125,202.2688388824463,202.3470401763916,202.406644821167,202.8965950012207
1759120531.0247474,1759120531.026219,228.30629348754883,0.016689300537109375,0.07987022399902344,197.00264930725098,197.08251953125,197.13783264160156,197.6757049560547
1759120531.2531652,1759120531.261962,220.10207176208496,0.01621246337890625,0.08535385131835938,208.0998420715332,208.18519592285156,208.24193954467773,208.72926712036133
1759120531.4734437,1759120531.493601,245.4984188079834,0.015735626220703125,0.0782012939453125,220.41082382202148,220.4890251159668,220.54243087768555,221.04263305664062
1759120531.7191021,1759120531.7207606,251.82008743286133,0.01621246337890625,0.0782012939453125,249.14932250976562,249.22752380371094,249.28569793701172,249.8033046722412
1759120531.9710329,1759120531.9758036,245.90301513671875,0.01621246337890625,0.0782012939453125,220.42369842529297,220.50189971923828,220.56317329406738,221.12035751342773
1759120532.2170439,1759120532.2260668,242.74468421936035,0.0171661376953125,0.08606910705566406,230.93485832214355,231.02092742919922,231.0788631439209,231.5962314605713
1759120532.4599452,1759120532.4614246,201.59149169921875,0.017404556274414062,0.07891654968261719,199.10407066345215,199.18298721313477,199.24044609069824,199.76115226745605
1759120532.661692,1759120532.664975,190.49406051635742,0.01811981201171875,0.07867813110351562,185.44983863830566,185.52851676940918,185.59026718139648,186.09142303466797
1759120532.8523676,1759120532.8559756,197.22795486450195,0.01621246337890625,0.07796287536621094,192.61837005615234,192.69633293151855,192.7502155303955,193.24469566345215
1759120533.0497513,1759120533.0549896,206.8934440612793,0.016689300537109375,0.07796287536621094,198.71115684509277,198.78911972045898,198.8508701324463,199.35870170593262
1759120533.2568026,1759120533.2583418,247.73764610290527,0.02384185791015625,0.08082389831542969,213.57393264770508,213.6547565460205,213.71793746948242,214.24126625061035
1759120533.504706,1759120533.506248,228.76572608947754,0.01621246337890625,0.07867813110351562,226.17340087890625,226.25207901000977,226.30929946899414,226.85861587524414
1759120533.7336292,1759120533.7351289,238.66820335388184,0.018835067749023438,0.07891654968261719,203.10664176940918,203.1855583190918,236.26971244812012,236.86909675598145
1759120533.97247,1759120533.9739966,236.47069931030273,0.015735626220703125,0.07843971252441406,199.1589069366455,199.23734664916992,199.29122924804688,199.81980323791504
1759120534.2092261,1759120534.2169533,220.2761173248291,0.016450881958007812,0.07915496826171875,202.8663158416748,202.94547080993652,203.0034065246582,203.5074234008789
1759120534.4296656,1759120534.4329543,234.83562469482422,0.016450881958007812,0.07653236389160156,228.7442684173584,228.82080078125,228.87444496154785,229.36487197875977
1759120534.6646109,1759120534.6778834,423.1564998626709,0.1361370086669922,0.07843971252441406,210.13379096984863,210.21223068237305,210.42466163635254,213.0734920501709
1759120535.0883522,1759120535.0979154,222.95856475830078,0.016689300537109375,0.07748603820800781,206.97927474975586,207.05676078796387,207.11922645568848,207.63134956359863
1759120535.3114793,1759120535.3129807,229.02822494506836,0.015974044799804688,0.07772445678710938,219.01822090148926,219.09594535827637,219.15006637573242,219.66290473937988
1759120535.5406687,1759120535.5536103,210.78824996948242,0.016450881958007812,0.07891654968261719,185.84609031677246,185.92500686645508,185.98294258117676,186.52939796447754
1759120535.7516186,1759120535.763888,201.65634155273438,0.0171661376953125,0.07796287536621094,172.8372573852539,172.91522026062012,172.97005653381348,173.46596717834473
1759120535.9534497,1759120535.954905,211.47775650024414,0.016450881958007812,0.08058547973632812,205.69324493408203,205.77383041381836,205.82938194274902,206.3288688659668
1759120536.1650858,1759120536.1665652,200.6974220275879,0.0171661376953125,0.07748603820800781,195.6918239593506,195.7693099975586,195.83678245544434,196.34723663330078
1759120536.365943,1759120536.367413,218.84894371032715,0.01811981201171875,0.07915496826171875,215.0883674621582,215.16752243041992,215.2237892150879,215.7435417175293
1759120536.5849516,1759120536.5899808,218.4884548187256,0.01621246337890625,0.07700920104980469,202.76618003845215,202.84318923950195,202.90708541870117,203.41992378234863
1759120536.8035538,1759120536.8120074,219.83575820922852,0.017642974853515625,0.07987022399902344,210.33811569213867,210.4179859161377,210.4783058166504,211.0002040863037
1759120537.0236857,1759120537.0279956,180.55319786071777,0.017881393432617188,0.07724761962890625,155.20501136779785,155.28225898742676,155.34234046936035,175.8863925933838
1759120537.2043467,1759120537.2058792,167.57678985595703,0.017642974853515625,0.08130073547363281,152.4832248687744,152.56452560424805,152.62508392333984,153.1386375427246
1759120537.3755035,1759120537.3769777,162.4279022216797,0.016450881958007812,0.0782012939453125,146.56758308410645,146.64578437805176,146.70395851135254,147.20559120178223
1759120537.538088,1759120537.539575,166.4102077484131,0.016689300537109375,0.08082389831542969,163.28668594360352,163.36750984191895,163.42806816101074,163.9394760131836
1759120537.7046566,1759120537.7079723,166.2578582763672,0.01621246337890625,0.07677078247070312,158.1718921661377,158.2486629486084,158.30397605895996,158.80417823791504
1759120537.8710687,1759120537.8740125,194.14973258972168,0.01621246337890625,0.07510185241699219,190.2155876159668,190.2906894683838,190.35601615905762,190.86313247680664
1759120538.065503,1759120538.0700777,190.99855422973633,0.017642974853515625,0.08034706115722656,153.9309024810791,154.01124954223633,154.07037734985352,154.57820892333984
1759120538.2566605,1759120538.2581153,177.25753784179688,0.015974044799804688,0.07939338684082031,167.13929176330566,167.21868515014648,167.28949546813965,167.77992248535156
1759120538.4340725,1759120538.435551,190.76943397521973,0.0171661376953125,0.08034706115722656,188.28988075256348,188.3702278137207,188.4298324584961,188.94624710083008
1759120538.624997,1759120538.6439137,233.89434814453125,0.017642974853515625,0.08058547973632812,213.94610404968262,214.02668952941895,214.08534049987793,214.59174156188965
1759120538.8590465,1759120538.8605597,208.39190483093262,0.017642974853515625,0.08082389831542969,203.5529613494873,203.63378524780273,203.69505882263184,204.2217254638672
1759120539.0676048,1759120539.0690649,212.87226676940918,0.0171661376953125,0.07915496826171875,182.9242706298828,183.00342559814453,183.06422233581543,183.5627555847168
1759120539.2806382,1759120539.2849863,192.86298751831055,0.015974044799804688,0.07987022399902344,186.54465675354004,186.62452697753906,186.68222427368164,187.18338012695312
1759120539.4736602,1759120539.4776719,212.52679824829102,0.016689300537109375,0.07939338684082031,175.05908012390137,175.1384735107422,175.248384475708,175.95791816711426
1759120539.6863415,1759120539.689535,231.42409324645996,0.0171661376953125,0.07939338684082031,227.22744941711426,227.30684280395508,227.3690700531006,227.88119316101074
1759120539.9179204,1759120539.919465,237.66517639160156,0.0171661376953125,0.07891654968261719,204.4062614440918,204.4851779937744,204.54096794128418,205.0645351409912
1759120540.1556966,1759120540.1572254,219.2084789276123,0.016450881958007812,0.07891654968261719,210.85643768310547,210.9353542327881,210.99472045898438,211.52853965759277
1759120540.375063,1759120540.3765223,210.7865810394287,0.016927719116210938,0.07772445678710938,190.60897827148438,190.68670272827148,190.74654579162598,207.02815055847168
1759120540.5860052,1759120540.7557447,358.8082790374756,0.10418891906738281,0.06914138793945312,178.74979972839355,178.818941116333,179.01039123535156,355.12518882751465
1759120540.9451063,1759120540.947773,421.1759567260742,0.028371810913085938,0.080108642578125,193.11761856079102,193.19772720336914,193.45569610595703,417.09232330322266
1759120541.3704603,1759120541.5964866,449.80621337890625,0.10657310485839844,0.07319450378417969,205.4276466369629,205.50084114074707,205.69753646850586,430.1953315734863
1759120541.8204563,1759120542.0533514,465.4207229614258,0.13303756713867188,0.07867813110351562,211.70854568481445,211.78722381591797,224.0593433380127,458.50491523742676
1759120542.287829,1759120542.5246408,453.50074768066406,0.10895729064941406,0.07557868957519531,209.46526527404785,209.54084396362305,209.7766399383545,445.90044021606445
1759120542.741462,1759120542.7429383,223.97994995117188,0.018835067749023438,0.0782012939453125,220.1378345489502,220.2160358428955,220.27969360351562,220.81756591796875
1759120542.965615,1759120543.0000412,225.38018226623535,0.02956390380859375,0.07867813110351562,184.6320629119873,184.71074104309082,184.85403060913086,214.0347957611084
1759120543.1911077,1759120543.1926458,210.85739135742188,0.016689300537109375,0.07772445678710938,200.21605491638184,200.29377937316895,200.35314559936523,200.87170600891113
1759120543.4021235,1759120543.4036543,219.44808959960938,0.0171661376953125,0.08130073547363281,216.8724536895752,216.95375442504883,217.01502799987793,217.54765510559082
1759120543.6217299,1759120543.6232784,219.76852416992188,0.017642974853515625,0.1087188720703125,210.892915725708,211.00163459777832,211.0593318939209,211.5943431854248
1759120543.8416836,1759120543.8433442,223.98662567138672,21.036863327026367,0.08463859558105469,192.13247299194336,192.2171115875244,213.29045295715332,213.84739875793457
1759120544.065825,1759120544.0712447,228.64127159118652,0.0171661376953125,0.07796287536621094,222.20206260681152,222.28002548217773,222.34416007995605,222.8403091430664
1759120544.2946243,1759120544.296135,217.329740524292,0.017642974853515625,0.0782012939453125,208.4035873413086,208.4817886352539,208.53614807128906,209.04803276062012
1759120544.5121086,1759120544.6969962,404.5419692993164,0.10180473327636719,0.07009506225585938,210.46972274780273,210.5398178100586,210.72793006896973,394.67477798461914
1759120544.9167676,1759120544.9182973,227.77032852172852,0.016689300537109375,0.0858306884765625,225.04234313964844,225.128173828125,225.1908779144287,225.7254123687744
1759120545.146526,1759120545.1480575,206.62498474121094,0.01621246337890625,0.09679794311523438,204.06079292297363,204.15759086608887,204.21600341796875,204.74886894226074
1759120545.3533108,1759120545.3569944,223.62256050109863,0.0171661376953125,0.07867813110351562,215.52395820617676,215.60263633728027,215.66009521484375,216.19272232055664
1759120545.5770903,1759120545.578656,232.34796524047852,0.0171661376953125,0.07891654968261719,228.8811206817627,228.9600372314453,229.0186882019043,229.55918312072754
1759120545.8096025,1759120545.815825,446.7024803161621,0.026464462280273438,0.07796287536621094,207.22055435180664,207.29851722717285,232.58447647094727,411.2420082092285
1759120546.25649,1759120546.2579632,201.27201080322266,0.016689300537109375,0.07724761962890625,190.64784049987793,190.72508811950684,190.78421592712402,191.27368927001953
1759120546.4578745,1759120546.4644392,394.1495418548584,0.027894973754882812,0.07724761962890625,185.3170394897461,185.394287109375,185.64462661743164,386.89589500427246
1759120546.85451,1759120546.857809,399.381160736084,0.026941299438476562,0.07700920104980469,187.10041046142578,187.1774196624756,187.42942810058594,390.03562927246094
1759120547.254056,1759120547.261878,230.27300834655762,0.0152587890625,0.07510185241699219,221.44794464111328,221.52304649353027,221.58360481262207,222.07331657409668
1759120547.4845178,1759120547.4859843,212.47076988220215,0.017404556274414062,0.0782012939453125,189.15486335754395,189.23306465148926,189.29314613342285,189.80026245117188
1759120547.6971014,1759120547.7000697,189.36872482299805,0.016689300537109375,0.07939338684082031,185.3945255279541,185.47391891479492,185.5320930480957,186.0363483428955
1759120547.886629,1759120547.888277,211.439847946167,0.0171661376953125,0.09489059448242188,186.7363452911377,186.83123588562012,186.8903636932373,187.41154670715332
1759120548.098227,1759120548.1038904,211.80248260498047,0.016689300537109375,0.07915496826171875,178.0855655670166,178.16472053527832,178.22504043579102,178.73072624206543
1759120548.3101854,1759120548.314979,184.45515632629395,0.017404556274414062,0.07867813110351562,178.65729331970215,178.73597145080566,178.79772186279297,179.30173873901367
1759120548.494802,1759120548.4999716,161.58533096313477,0.015974044799804688,0.07772445678710938,155.41481971740723,155.49254417419434,155.55047988891602,156.04162216186523
1759120548.6565456,1759120548.6599703,194.6415901184082,0.0171661376953125,0.07677078247070312,187.86096572875977,187.93773651123047,188.00020217895508,188.490629196167
1759120548.8513494,1759120548.8528993,226.15504264831543,0.01621246337890625,0.07796287536621094,190.00887870788574,190.08684158325195,190.14286994934082,190.63377380371094
1759120549.0776694,1759120549.0791533,223.83451461791992,0.015974044799804688,0.0762939453125,212.4614715576172,212.5377655029297,212.59117126464844,213.0880355834961
1759120549.3016722,1759120549.3169794,245.56279182434082,0.0171661376953125,0.07677078247070312,198.1189250946045,198.1956958770752,198.2583999633789,229.8123836517334
1759120549.5484588,1759120549.549922,209.19442176818848,0.015974044799804688,0.07677078247070312,206.71725273132324,206.79402351379395,206.85434341430664,207.3533535003662
1759120549.7578087,1759120549.7592769,191.62917137145996,0.017404556274414062,0.09202957153320312,181.93793296813965,182.02996253967285,182.0979118347168,182.600736618042
1759120549.9496007,1759120549.951027,201.55000686645508,0.015974044799804688,0.07486343383789062,199.13268089294434,199.20754432678223,199.26953315734863,199.75852966308594
1759120550.1513045,1759120550.1528244,207.61418342590332,0.01621246337890625,0.08296966552734375,198.29463958740234,198.3776092529297,198.43125343322754,198.95505905151367
1759120550.3590705,1759120550.3622653,226.5162467956543,0.016450881958007812,0.09274482727050781,199.62692260742188,199.71966743469238,199.7823715209961,200.2713680267334
1759120550.5857468,1759120550.5872066,189.28217887878418,0.01621246337890625,0.07700920104980469,182.74378776550293,182.82079696655273,182.87944793701172,183.39180946350098
1759120550.7751834,1759120550.7779937,230.59916496276855,0.0171661376953125,0.07653236389160156,224.47776794433594,224.55430030822754,224.66540336608887,225.3713607788086
1759120551.0059414,1759120551.0492363,286.21935844421387,0.019550323486328125,0.09131431579589844,241.82510375976562,241.91641807556152,241.99581146240234,274.444580078125
1759120551.2923195,1759120551.2938888,248.17585945129395,0.016689300537109375,0.07724761962890625,232.50269889831543,232.57994651794434,232.69152641296387,233.4139347076416
1759120551.5415103,1759120551.5459769,220.93677520751953,0.015974044799804688,0.07843971252441406,209.9628448486328,210.04128456115723,210.10851860046387,210.65068244934082
1759120551.7626216,1759120551.76418,210.41584014892578,0.019311904907226562,0.08463859558105469,199.4473934173584,199.53203201293945,199.59688186645508,200.12259483337402
1759120551.9731975,1759120551.9885654,248.29959869384766,0.018835067749023438,0.07915496826171875,195.37901878356934,195.45817375183105,195.56784629821777,231.57835006713867
1759120552.2216082,1759120552.2297347,261.1863613128662,0.019788742065429688,0.07987022399902344,251.97362899780273,252.05349922180176,252.12907791137695,256.87146186828613
1759120552.482954,1759120552.4845057,222.48554229736328,0.0171661376953125,0.07843971252441406,218.0168628692627,218.0953025817871,218.14942359924316,218.66869926452637
1759120552.7056065,1759120552.711989,252.33078002929688,0.016927719116210938,0.07796287536621094,216.25494956970215,216.33291244506836,216.41230583190918,220.58701515197754
1759120552.9580946,1759120552.9595637,217.8328037261963,0.017404556274414062,0.07891654968261719,187.35003471374512,187.42895126342773,187.48807907104492,187.99352645874023
1759120553.176087,1759120553.1809928,231.52780532836914,0.017642974853515625,0.07700920104980469,210.56771278381348,210.64472198486328,210.75105667114258,211.46225929260254
1759120553.4077737,1759120553.411269,220.97396850585938,0.016450881958007812,0.08726119995117188,213.7777805328369,213.8650417327881,213.9267921447754,214.4162654876709
1759120553.6289108,1759120553.6304162,213.81235122680664,0.0171661376953125,0.07748603820800781,205.21831512451172,205.29580116271973,205.35778999328613,205.87158203125
1759120553.8428826,1759120553.8443499,228.04999351501465,0.032901763916015625,0.07891654968261719,222.32317924499512,222.40209579467773,222.47648239135742,222.9752540588379
1759120554.07121,1759120554.0859628,244.2915439605713,0.016689300537109375,0.07700920104980469,223.0072021484375,223.0842113494873,223.13714027404785,223.6340045928955
1759120554.3156662,1759120554.3171337,215.47460556030273,0.016689300537109375,0.07748603820800781,194.52452659606934,194.60201263427734,194.71001625061035,195.39189338684082
1759120554.5313,1759120554.5466275,227.79488563537598,0.016689300537109375,0.0782012939453125,207.5183391571045,207.5965404510498,207.70621299743652,208.4188461303711
1759120554.7605352,1759120555.0106692,453.91106605529785,0.3886222839355469,0.08606910705566406,183.3364963531494,183.42256546020508,201.76172256469727,450.9284496307373
1759120555.214566,1759120555.2229164,212.9385471343994,0.017881393432617188,0.07963180541992188,196.85935974121094,196.93899154663086,196.99788093566895,197.5104808807373
1759120555.4276683,1759120555.4399753,234.27271842956543,0.016450881958007812,0.07843971252441406,217.0569896697998,217.13542938232422,217.19646453857422,217.6976203918457
1759120555.6621006,1759120555.681893,240.04721641540527,0.0171661376953125,0.07748603820800781,219.25091743469238,219.3284034729004,219.38824653625488,219.8953628540039
1759120555.902308,1759120555.9174829,243.5770034790039,0.016689300537109375,0.07653236389160156,227.37550735473633,227.45203971862793,227.51140594482422,228.01780700683594
1759120556.1460478,1759120556.15099,227.77438163757324,0.01621246337890625,0.07653236389160156,191.10798835754395,191.18452072143555,191.24674797058105,220.69168090820312
1759120556.3740244,1759120556.3755057,211.90619468688965,0.016689300537109375,0.0762939453125,205.65319061279297,205.72948455810547,205.79028129577637,206.3004970550537
1759120556.586209,1759120556.5909803,192.46339797973633,0.016927719116210938,0.07915496826171875,177.90722846984863,177.98638343811035,178.04670333862305,178.5738468170166
1759120556.7788308,1759120556.780302,215.29865264892578,0.016450881958007812,0.09775161743164062,212.6178741455078,212.71562576293945,212.79454231262207,213.33909034729004
1759120556.9943008,1759120556.9959266,249.49383735656738,0.018358230590820312,0.0896453857421875,186.83290481567383,186.92255020141602,186.98954582214355,187.55221366882324
1759120557.2439191,1759120557.2482944,212.59021759033203,0.019550323486328125,0.10132789611816406,199.62668418884277,199.72801208496094,199.79524612426758,200.3653049468994
1759120557.4566808,1759120557.4582334,211.26055717468262,0.01811981201171875,0.08749961853027344,199.37539100646973,199.462890625,199.5246410369873,200.0412940979004
1759120557.668103,1759120557.6696444,190.83356857299805,0.0171661376953125,0.08153915405273438,180.87172508239746,180.9532642364502,181.0152530670166,185.29748916625977
1759120557.859048,1759120557.8606012,205.96647262573242,0.017404556274414062,0.08440017700195312,203.3553123474121,203.43971252441406,203.50074768066406,204.04577255249023
1759120558.0651717,1759120558.0667458,225.86512565612793,0.016927719116210938,0.08273124694824219,223.26302528381348,223.34575653076172,223.402738571167,223.94514083862305
1759120558.2911935,1759120558.296113,214.7996425628662,0.016927719116210938,0.08225440979003906,205.63769340515137,205.7199478149414,205.7788372039795,206.28595352172852
1759120558.5065012,1759120558.5100343,226.19247436523438,0.01811981201171875,0.080108642578125,221.64535522460938,221.7254638671875,221.7860221862793,222.2878932952881
1759120558.7328484,1759120558.734388,258.9437961578369,0.01811981201171875,0.08177757263183594,233.41655731201172,233.49833488464355,233.55484008789062,234.09295082092285
1759120558.9919457,1759120558.997027,248.49820137023926,0.016689300537109375,0.07867813110351562,242.39420890808105,242.47288703918457,242.52963066101074,243.03507804870605
1759120559.2405517,1759120559.2421134,225.4171371459961,0.017404556274414062,0.08082389831542969,222.825288772583,222.90611267089844,222.9619026184082,223.50358963012695
1759120559.4661245,1759120559.4812224,469.3188667297363,0.029087066650390625,0.07796287536621094,207.89480209350586,207.97276496887207,232.26046562194824,419.0831184387207
1759120559.9356163,1759120559.9387863,397.9077339172363,0.027418136596679688,0.07843971252441406,174.95083808898926,175.02927780151367,175.2777099609375,385.4987621307373
1759120560.3336854,1759120560.3376174,433.8223934173584,0.026464462280273438,0.07772445678710938,207.28397369384766,207.36169815063477,207.6113224029541,426.8362522125244
1759120560.7676244,1759120560.7888315,451.54404640197754,0.030755996704101562,0.07724761962890625,231.83917999267578,231.9164276123047,232.2220802307129,432.4462413787842
1759120561.2193344,1759120561.4546087,625.4491806030273,0.42366981506347656,0.07915496826171875,169.14033889770508,169.2194938659668,202.28838920593262,615.1430606842041
1759120561.8462524,1759120562.0609276,421.77677154541016,0.10728836059570312,0.07414817810058594,199.98574256896973,200.0598907470703,200.2544403076172,418.14589500427246
1759120562.2714689,1759120562.4338086,358.381986618042,0.10180473327636719,0.07152557373046875,164.45064544677734,164.5221710205078,164.70670700073242,345.7374572753906
1759120562.6300104,1759120562.6319127,186.94639205932617,0.017404556274414062,0.07724761962890625,184.0229034423828,184.10015106201172,184.1592788696289,184.7546100616455
1759120562.8171184,1759120562.8186622,213.32025527954102,0.016450881958007812,0.0782012939453125,201.4472484588623,201.52544975280762,201.57909393310547,202.09932327270508
1759120563.0306022,1759120563.0440278,461.8372917175293,0.027179718017578125,0.07939338684082031,196.91824913024902,196.99764251708984,197.2494125366211,450.91962814331055
1759120563.4926217,1759120563.670445,416.56947135925293,0.10085105895996094,0.07224082946777344,211.0421657562256,211.11440658569336,211.29894256591797,393.39303970336914
1759120563.9094098,1759120564.1060839,411.17382049560547,0.10061264038085938,0.0705718994140625,207.80158042907715,207.8721523284912,208.08768272399902,404.1266441345215
1759120564.3207474,1759120564.3394608,224.0283489227295,0.0171661376953125,0.07796287536621094,199.55754280090332,199.63550567626953,199.7065544128418,200.35505294799805
1759120564.5454164,1759120564.5517538,409.1789722442627,0.025987625122070312,0.07843971252441406,172.2872257232666,172.36566543579102,172.63031005859375,376.8808841705322
1759120564.9547656,1759120564.959717,419.7852611541748,0.026226043701171875,0.080108642578125,188.80629539489746,188.8864040374756,189.13698196411133,411.72146797180176
1759120565.3751855,1759120565.3780897,439.32342529296875,0.028371810913085938,0.08034706115722656,196.60305976867676,196.68340682983398,196.93756103515625,433.11262130737305
1759120565.8149736,1759120565.8164766,210.61968803405762,0.016927719116210938,0.07915496826171875,192.12579727172852,192.20495223999023,192.26646423339844,192.78550148010254
1759120566.0257587,1759120566.0273292,255.7849884033203,0.015497207641601562,22.112131118774414,194.63539123535156,216.74752235412598,216.80068969726562,217.31925010681152
1759120566.2845137,1759120566.2860408,234.9860668182373,0.01621246337890625,0.07748603820800781,200.55890083312988,200.6363868713379,200.7443904876709,201.4148235321045
1759120566.5196602,1759120566.5211475,241.4085865020752,0.0171661376953125,0.08034706115722656,234.6651554107666,234.74550247192383,234.81273651123047,235.33201217651367
