Timestamp,ArrivalTime,TotalTime(ms),WaitTime(ms),DecodeTime(ms),InferTime(ms),ServerComputeTime(ms),TotalServer(ms),Total
1759166654.518986,1759166654.6552646,173.34938049316406,2.2907257080078125,0.16164779663085938,24.575233459472656,24.736881256103516,27.22930908203125,28.63764762878418
1759166654.6925418,1759166654.6940405,31.129121780395508,1.4891624450683594,0.1621246337890625,21.473407745361328,21.63553237915039,23.305416107177734,24.143695831298828
1759166654.7241516,1759166654.7255678,31.692981719970703,1.2927055358886719,0.16069412231445312,21.585464477539062,21.746158599853516,23.07891845703125,23.665189743041992
1759166654.7560482,1759166654.7574248,27.37140655517578,0.5614757537841797,0.1506805419921875,21.334171295166016,21.484851837158203,22.22275733947754,22.99213409423828
1759166654.7845674,1759166654.787746,27.47035026550293,0.5121231079101562,0.14257431030273438,21.213769912719727,21.35634422302246,22.0334529876709,22.977113723754883
1759166654.8131785,1759166654.8170712,31.74281120300293,1.0297298431396484,0.1392364501953125,21.07858657836914,21.217823028564453,22.28546142578125,23.21910858154297
1759166654.8450782,1759166654.8476055,28.272390365600586,0.05793571472167969,0.13828277587890625,21.036863327026367,21.175146102905273,21.44145965576172,22.595882415771484
1759166654.8734956,1759166654.8748193,26.309967041015625,2.2122859954833984,0.13947486877441406,21.16537094116211,21.304845809936523,23.55194091796875,24.13487434387207
1759166654.9010286,1759166654.9064958,30.6549072265625,0.16760826110839844,0.13899803161621094,20.888805389404297,21.027803421020508,21.35920524597168,22.645235061645508
1759166654.9328306,1759166654.9356797,26.616811752319336,0.5717277526855469,0.1399517059326172,21.242141723632812,21.38209342956543,22.11594581604004,23.25749397277832
1759166654.959999,1759166654.9648244,29.187440872192383,1.7538070678710938,0.13637542724609375,20.937681198120117,21.07405662536621,22.994279861450195,23.82802963256836
1759166654.9898598,1759166654.994761,29.809951782226562,1.3341903686523438,0.1380443572998047,20.873546600341797,21.0115909576416,22.383451461791992,22.96590805053711
1759166655.0208874,1759166655.0251691,30.87759017944336,0.15735626220703125,0.1385211944580078,20.870447158813477,21.008968353271484,21.327733993530273,22.672414779663086
1759166655.0519454,1759166655.0549212,31.779050827026367,0.017404556274414062,0.13756752014160156,24.151086807250977,24.288654327392578,24.60789680480957,26.06344223022461
1759166655.083862,1759166655.087705,29.600858688354492,0.06818771362304688,0.1735687255859375,21.314144134521484,21.487712860107422,21.755218505859375,22.938013076782227
1759166655.1136208,1759166655.1149046,31.134605407714844,2.9120445251464844,0.13589859008789062,21.236896514892578,21.37279510498047,24.318695068359375,24.88422393798828
1759166655.1451735,1759166655.1467545,29.459714889526367,0.8666515350341797,0.1399517059326172,21.168947219848633,21.30889892578125,22.29452133178711,23.13828468322754
1759166655.1756651,1759166655.1775422,26.33953094482422,0.02193450927734375,0.13828277587890625,21.085500717163086,21.223783493041992,21.45075798034668,22.392988204956055
1759166655.2021437,1759166655.2034445,32.6540470123291,4.120588302612305,0.13899803161621094,20.998477935791016,21.137475967407227,25.29168128967285,25.854825973510742
1759166655.2355332,1759166655.2372077,29.015302658081055,0.037670135498046875,0.13971328735351562,21.093130111694336,21.23284339904785,21.482467651367188,22.435426712036133
1759166655.2646885,1759166655.2660332,29.805660247802734,1.0802745819091797,0.1385211944580078,21.114349365234375,21.252870559692383,22.448062896728516,23.131847381591797
1759166655.2946594,1759166655.2959962,29.752016067504883,1.070261001586914,0.1373291015625,21.16560935974121,21.30293846130371,22.494792938232422,23.180007934570312
1759166655.324617,1759166655.3268518,27.66871452331543,0.02002716064453125,0.1392364501953125,21.038293838500977,21.17753028869629,21.397829055786133,22.2470760345459
1759166655.3524652,1759166655.3561635,28.278350830078125,0.14066696166992188,0.13518333435058594,21.091222763061523,21.22640609741211,21.526575088500977,22.594451904296875
1759166655.3809881,1759166655.3857064,29.734134674072266,0.1404285430908203,0.1404285430908203,21.166563034057617,21.306991577148438,21.613597869873047,22.537708282470703
1759166655.4108617,1759166655.4155889,28.045177459716797,0.15687942504882812,0.13899803161621094,20.879507064819336,21.018505096435547,21.340131759643555,22.760391235351562
1759166655.4392486,1759166655.4406004,33.92744064331055,4.776954650878906,0.14710426330566406,21.093130111694336,21.240234375,26.05605125427246,26.630163192749023
1759166655.4735925,1759166655.4752362,25.983333587646484,0.02288818359375,0.1380443572998047,21.042585372924805,21.18062973022461,21.411895751953125,22.32646942138672
1759166655.4998505,1759166655.5047095,30.187129974365234,0.5664825439453125,0.13780593872070312,20.992040634155273,21.129846572875977,21.86131477355957,22.69291877746582
1759166655.5311801,1759166655.5324757,30.503273010253906,2.109050750732422,0.1380443572998047,21.012544631958008,21.150588989257812,23.300647735595703,23.879289627075195
1759166655.5624118,1759166655.5640857,28.332233428955078,0.03814697265625,0.13637542724609375,21.000385284423828,21.136760711669922,21.381139755249023,22.305727005004883
1759166655.5908368,1759166655.5921495,26.70121192932129,1.6031265258789062,0.1380443572998047,21.160364151000977,21.29840850830078,22.934675216674805,23.50020408630371
1759166655.6179502,1759166655.6230602,30.548572540283203,0.1533031463623047,0.1373291015625,21.001338958740234,21.138668060302734,21.46172523498535,22.620201110839844
1759166655.6486535,1759166655.6522508,28.469085693359375,0.13828277587890625,0.1442432403564453,21.071910858154297,21.216154098510742,21.518468856811523,22.52197265625
1759166655.6772597,1759166655.681832,30.467987060546875,0.019788742065429688,0.13971328735351562,20.95961570739746,21.099328994750977,21.319866180419922,22.17721939086914
1759166655.7078736,1759166655.709532,29.021501541137695,1.9903182983398438,0.13828277587890625,20.998716354370117,21.136999130249023,23.24223518371582,23.916959762573242
1759166655.737029,1759166655.7382948,31.39948844909668,2.8390884399414062,0.13828277587890625,21.050214767456055,21.18849754333496,24.065732955932617,24.62601661682129
1759166655.7692566,1759166655.770919,25.348663330078125,0.03933906555175781,0.13947486877441406,21.231412887573242,21.370887756347656,21.622419357299805,22.684812545776367
1759166655.7947059,1759166655.8004441,30.487060546875,0.5390644073486328,0.13947486877441406,21.069765090942383,21.209239959716797,21.907567977905273,22.6900577545166
1759166655.8253322,1759166655.8288732,30.774831771850586,1.8205642700195312,0.1385211944580078,20.9805965423584,21.119117736816406,23.058414459228516,23.900747299194336
1759166655.8562453,1759166655.8600197,27.556419372558594,0.13446807861328125,0.1373291015625,21.00849151611328,21.14582061767578,21.44336700439453,22.349119186401367
1759166655.884871,1759166655.8887224,30.301809310913086,0.8530616760253906,0.13899803161621094,21.21734619140625,21.35634422302246,22.33123779296875,23.183584213256836
1759166655.9153135,1759166655.919055,27.29010581970215,0.05698204040527344,0.13947486877441406,20.95818519592285,21.097660064697266,21.358251571655273,22.5372314453125
1759166655.9439287,1759166655.94524,33.10585021972656,3.3533573150634766,0.13518333435058594,21.248817443847656,21.384000778198242,24.782657623291016,25.391340255737305
1759166655.977148,1759166655.9786124,27.403593063354492,1.1496543884277344,0.16570091247558594,21.628856658935547,21.794557571411133,23.080110549926758,23.85234832763672
1759166656.0048132,1759166656.0102346,30.981063842773438,0.25582313537597656,0.15687942504882812,21.32248878479004,21.479368209838867,21.86417579650879,22.942304611206055
1759166656.0361369,1759166656.0404544,29.624462127685547,0.06532669067382812,0.1499652862548828,21.190166473388672,21.340131759643555,21.614789962768555,22.881269454956055
1759166656.067692,1759166656.070223,28.996944427490234,0.13208389282226562,0.1533031463623047,21.014928817749023,21.168231964111328,21.46172523498535,22.406578063964844
1759166656.096866,1759166656.0982585,25.998830795288086,1.8663406372070312,0.14519691467285156,21.115541458129883,21.260738372802734,23.257017135620117,23.889780044555664
1759166656.123065,1759166656.1275663,34.59048271179199,2.315521240234375,0.1423358917236328,21.44455909729004,21.586894989013672,23.95153045654297,24.630308151245117
1759166656.157805,1759166656.159553,29.39009666442871,0.5452632904052734,0.1404285430908203,25.311946868896484,25.452375411987305,26.18861198425293,27.144432067871094
1759166656.1872969,1759166656.1887255,36.109209060668945,5.84721565246582,0.1513957977294922,21.289587020874023,21.440982818603516,27.329206466674805,27.916431427001953
1759166656.2235699,1759166656.2249548,28.89418601989746,0.021219253540039062,0.14400482177734375,21.29220962524414,21.436214447021484,21.66914939880371,22.61972427368164
1759166656.2532246,1759166656.2551029,25.52938461303711,0.020265579223632812,0.1404285430908203,21.198749542236328,21.33917808532715,21.570920944213867,22.312164306640625
1759166656.2788754,1759166656.2838538,29.98208999633789,1.1076927185058594,0.1533031463623047,21.105527877807617,21.258831024169922,22.400617599487305,22.966623306274414
1759166656.3090713,1759166656.3138268,31.267404556274414,0.7598400115966797,0.1494884490966797,21.245718002319336,21.395206451416016,22.278308868408203,23.169994354248047
1759166656.3413537,1759166656.3429928,29.38532829284668,1.4848709106445312,0.14662742614746094,21.25096321105957,21.39759063720703,23.050785064697266,23.99158477783203
1759166656.3718991,1759166656.3743618,28.64861488342285,0.3325939178466797,0.13828277587890625,21.00992202758789,21.148204803466797,21.646738052368164,22.707462310791016
1759166656.4007406,1759166656.4020627,26.453018188476562,2.514362335205078,0.14138221740722656,20.986080169677734,21.12746238708496,23.76103401184082,24.433374404907227
1759166656.4273937,1759166656.4313939,31.156063079833984,3.023386001586914,0.1442432403564453,21.06928825378418,21.213531494140625,24.27506446838379,24.834871292114258
1759166656.4586883,1759166656.464193,28.710365295410156,0.019073486328125,0.13971328735351562,21.12269401550293,21.262407302856445,21.49486541748047,22.379398345947266
1759166656.4875486,1759166656.4916904,30.811548233032227,2.4809837341308594,0.14090538024902344,21.965980529785156,22.10688591003418,24.62148666381836,25.29311180114746
1759166656.519611,1759166656.5234103,31.025409698486328,1.0199546813964844,0.1456737518310547,21.036863327026367,21.182537078857422,22.240400314331055,23.138046264648438
1759166656.5514276,1759166656.5538435,28.58710289001465,0.15878677368164062,0.1366138458251953,21.044254302978516,21.18086814880371,21.503925323486328,22.534847259521484
1759166656.5802114,1759166656.5838723,28.777599334716797,0.021696090698242188,0.13685226440429688,21.212100982666016,21.348953247070312,21.580219268798828,22.45187759399414
1759166656.6111646,1759166656.6124604,29.378890991210938,1.4202594757080078,0.1442432403564453,20.97630500793457,21.120548248291016,22.70364761352539,23.45442771911621
1759166656.6415465,1759166656.64307,29.427289962768555,0.5128383636474609,0.14138221740722656,21.260738372802734,21.40212059020996,22.080183029174805,23.029327392578125
1759166656.6717093,1759166656.6735919,24.78623390197754,0.020503997802734375,0.13637542724609375,20.95651626586914,21.092891693115234,21.314620971679688,22.055625915527344
1759166656.6966493,1759166656.7007644,30.64703941345215,2.46429443359375,0.1399517059326172,20.98989486694336,21.129846572875977,23.63133430480957,24.31464195251465
1759166656.7274387,1759166656.728741,32.38272666931152,4.334688186645508,0.14448165893554688,21.057605743408203,21.20208740234375,25.57539939880371,26.161670684814453
1759166656.760237,1759166656.7629578,29.83570098876953,0.019550323486328125,0.13875961303710938,21.002769470214844,21.141529083251953,21.36516571044922,22.14956283569336
1759166656.7902093,1759166656.7925746,26.113510131835938,0.021219253540039062,0.14066696166992188,21.119356155395508,21.26002311706543,21.480560302734375,22.397279739379883
1759166656.8182435,1759166656.8217082,27.691364288330078,0.5159378051757812,0.1418590545654297,21.001100540161133,21.142959594726562,21.82793617248535,22.80259132385254
1759166656.848997,1759166656.8502665,26.585817337036133,1.5416145324707031,0.13899803161621094,21.028995513916016,21.167993545532227,22.747516632080078,23.310184478759766
1759166656.8776474,1759166656.8809187,27.20022201538086,0.057697296142578125,0.1430511474609375,21.08311653137207,21.226167678833008,21.483182907104492,22.786617279052734
1759166656.9051735,1759166656.9104817,28.46670150756836,0.025987625122070312,0.13756752014160156,21.13175392150879,21.26932144165039,21.494150161743164,22.424936294555664
1759166656.9342058,1759166656.9401035,29.345273971557617,0.133514404296875,0.1385211944580078,21.059274673461914,21.197795867919922,21.511077880859375,22.37844467163086
1759166656.9648192,1759166656.9686518,29.61134910583496,1.0967254638671875,0.13875961303710938,21.004915237426758,21.143674850463867,22.278785705566406,22.84860610961914
1759166656.994756,1759166656.999111,28.985023498535156,0.035762786865234375,0.13828277587890625,21.20494842529297,21.343231201171875,21.591901779174805,22.80426025390625
1759166657.0238833,1759166657.0286915,28.256654739379883,0.042438507080078125,0.14352798461914062,21.025657653808594,21.169185638427734,21.407604217529297,22.3846435546875
1759166657.0545545,1759166657.0579224,29.16264533996582,0.0553131103515625,0.1392364501953125,21.028518676757812,21.167755126953125,21.422386169433594,22.673368453979492
1759166657.0838587,1759166657.087465,27.065277099609375,0.04792213439941406,0.13947486877441406,21.039247512817383,21.178722381591797,21.423816680908203,22.38631248474121
1759166657.1133778,1759166657.114668,27.856826782226562,2.2580623626708984,0.1373291015625,20.931720733642578,21.069049835205078,23.363351821899414,23.934364318847656
1759166657.1413753,1759166657.1460557,28.247594833374023,0.05650520324707031,0.13875961303710938,21.049976348876953,21.188735961914062,21.461963653564453,22.71866798400879
1759166657.1697187,1759166657.171079,34.08646583557129,4.942893981933594,0.1430511474609375,21.010398864746094,21.15345001220703,26.133298873901367,26.711702346801758
1759166657.204541,1759166657.205884,25.482177734375,0.019550323486328125,0.15115737915039062,21.259307861328125,21.410465240478516,21.643400192260742,22.4611759185791
1759166657.2311692,1759166657.2353308,28.14316749572754,0.055789947509765625,0.1461505889892578,20.999431610107422,21.14558219909668,21.40045166015625,22.609949111938477
1759166657.2620976,1759166657.2641253,29.94680404663086,0.6227493286132812,0.1404285430908203,21.16560935974121,21.30603790283203,22.044658660888672,22.847414016723633
1759166657.2921896,1759166657.2941802,28.64837646484375,0.05269050598144531,0.13899803161621094,24.796247482299805,24.935245513916016,25.222301483154297,26.436328887939453
1759166657.32372,1759166657.3250344,30.2276611328125,2.7599334716796875,0.1461505889892578,21.67987823486328,21.82602882385254,24.700164794921875,25.37250518798828
1759166657.356406,1759166657.35806,27.446746826171875,0.03910064697265625,0.14662742614746094,21.145343780517578,21.29197120666504,21.538496017456055,22.39847183227539
1759166657.3840804,1759166657.387585,29.307126998901367,0.04291534423828125,0.141143798828125,21.16560935974121,21.306753158569336,21.548986434936523,22.47142791748047
1759166657.4135437,1759166657.4148216,28.446435928344727,2.2394657135009766,0.13875961303710938,21.041154861450195,21.179914474487305,23.455381393432617,24.044513702392578
1759166657.443074,1759166657.4444,27.178049087524414,2.075672149658203,0.15211105346679688,21.007299423217773,21.15941047668457,23.273229598999023,23.84161949157715
1759166657.4728837,1759166657.4752467,28.698444366455078,0.6625652313232422,0.13899803161621094,21.027565002441406,21.166563034057617,21.94809913635254,22.851943969726562
1759166657.5024972,1759166657.5057802,27.689456939697266,0.019788742065429688,0.13589859008789062,20.98393440246582,21.11983299255371,21.341800689697266,22.078275680541992
1759166657.5311975,1759166657.5342937,29.711484909057617,0.8676052093505859,0.1373291015625,21.067380905151367,21.204710006713867,22.18914031982422,23.041486740112305
1759166657.5610049,1759166657.5646865,27.085065841674805,0.1442432403564453,0.13875961303710938,20.85113525390625,20.98989486694336,21.297216415405273,22.838354110717773
1759166657.588233,1759166657.594063,29.525279998779297,0.13446807861328125,0.14519691467285156,21.062850952148438,21.20804786682129,21.513700485229492,22.424936294555664
1759166657.6188726,1759166657.6228998,30.239105224609375,0.8876323699951172,0.1373291015625,21.010160446166992,21.147489547729492,22.154808044433594,22.78757095336914
1759166657.6492536,1759166657.6531334,27.883291244506836,0.04124641418457031,0.13756752014160156,21.090030670166016,21.227598190307617,21.481990814208984,22.46546745300293
1759166657.6781576,1759166657.6825843,28.21660041809082,0.14925003051757812,0.13399124145507812,20.924091339111328,21.058082580566406,21.366596221923828,22.609710693359375
1759166657.7084749,1759166657.7119625,27.3592472076416,0.019311904907226562,0.13589859008789062,20.973682403564453,21.109580993652344,21.33655548095703,22.2012996673584
1759166657.7378418,1759166657.7391353,27.321338653564453,2.103567123413086,0.14638900756835938,21.018028259277344,21.164417266845703,23.30160140991211,23.866653442382812
1759166657.7683773,1759166657.7700746,26.428937911987305,0.5476474761962891,0.13756752014160156,21.104812622070312,21.242380142211914,21.9571590423584,22.8884220123291
1759166657.7949924,1759166657.7986093,28.43189239501953,2.004861831665039,0.1380443572998047,21.008014678955078,21.146059036254883,23.270130157470703,23.937225341796875
1759166657.8241122,1759166657.8289633,30.13324737548828,1.0304450988769531,0.1399517059326172,20.940780639648438,21.080732345581055,22.150516510009766,23.061752319335938
1759166657.85482,1759166657.8593237,29.911041259765625,0.040531158447265625,0.15306472778320312,21.119356155395508,21.27242088317871,21.514415740966797,22.52507209777832
1759166657.887558,1759166657.8890543,25.56324005126953,0.02288818359375,0.1392364501953125,21.04496955871582,21.184206008911133,21.408796310424805,22.353649139404297
1759166657.913265,1759166657.914572,29.173612594604492,4.513263702392578,0.1423358917236328,20.964860916137695,21.107196807861328,25.65455436706543,26.222944259643555
1759166657.942542,1759166657.9438794,30.82871437072754,4.963874816894531,0.1373291015625,21.133899688720703,21.271228790283203,26.27253532409668,26.8247127532959
1759166657.973517,1759166657.9748337,32.43589401245117,3.873586654663086,0.13780593872070312,21.061182022094727,21.19898796081543,25.110721588134766,25.690793991088867
1759166658.006713,1759166658.0080218,27.283906936645508,0.5276203155517578,0.13899803161621094,21.03734016418457,21.17633819580078,21.869659423828125,22.6590633392334
1759166658.0341504,1759166658.0383422,27.66132354736328,0.0209808349609375,0.1437664031982422,21.045446395874023,21.189212799072266,21.418094635009766,22.298336029052734
1759166658.0630326,1759166658.0677812,28.68342399597168,0.04172325134277344,0.1399517059326172,21.09074592590332,21.230697631835938,21.470308303833008,22.447824478149414
1759166658.0928516,1759166658.0972798,29.0071964263916,0.019550323486328125,0.14734268188476562,21.049022674560547,21.196365356445312,21.418333053588867,22.289276123046875
1759166658.1228805,1759166658.126233,29.48927879333496,0.6208419799804688,0.13971328735351562,21.137714385986328,21.277427673339844,22.014379501342773,22.880077362060547
1759166658.1542444,1759166658.156667,29.715538024902344,0.021696090698242188,0.141143798828125,21.197080612182617,21.338224411010742,21.561384201049805,22.48835563659668
1759166658.184694,1759166658.186543,24.78766441345215,0.020265579223632812,0.1385211944580078,21.039724349975586,21.178245544433594,21.396636962890625,22.126197814941406
1759166658.2107413,1759166658.215905,29.56843376159668,0.13446807861328125,0.13756752014160156,20.99132537841797,21.12889289855957,21.42333984375,22.257089614868164
1759166658.240565,1759166658.2453532,30.25674819946289,0.04172325134277344,0.1480579376220703,21.010160446166992,21.158218383789062,21.410703659057617,22.425413131713867
1759166658.2709603,1759166658.2749546,27.928829193115234,0.05841255187988281,0.14972686767578125,20.943641662597656,21.093368530273438,21.348237991333008,22.927522659301758
1759166658.302155,1759166658.303765,25.713443756103516,0.5211830139160156,0.13828277587890625,21.15917205810547,21.297454833984375,21.981477737426758,22.87912368774414
1759166658.328964,1759166658.3338618,29.03437614440918,0.1342296600341797,0.13947486877441406,21.07524871826172,21.214723587036133,21.51346206665039,22.341489791870117
1759166658.3581903,1759166658.3634977,28.079509735107422,0.025033950805664062,0.1385211944580078,21.062612533569336,21.201133728027344,21.43716812133789,22.3081111907959
1759166658.3864708,1759166658.39043,31.68630599975586,2.672910690307617,0.14281272888183594,21.20208740234375,21.344900131225586,24.051666259765625,24.617910385131836
1759166658.4205148,1759166658.422179,29.458284378051758,0.5464553833007812,0.13756752014160156,21.091222763061523,21.228790283203125,21.938085556030273,22.854089736938477
1759166658.450114,1759166658.4514468,31.47268295288086,1.6815662384033203,0.19621849060058594,21.78645133972168,21.982669830322266,23.892879486083984,24.682283401489258
1759166658.4817486,1759166658.483082,30.281543731689453,1.0848045349121094,0.1373291015625,21.100759506225586,21.238088607788086,22.45306968688965,23.15521240234375
1759166658.5121953,1759166658.5140545,24.606943130493164,0.02002716064453125,0.13875961303710938,21.11649513244629,21.2552547454834,21.48127555847168,22.26996421813965
1759166658.5370023,1759166658.5404441,29.799222946166992,3.3795833587646484,0.14138221740722656,21.058082580566406,21.199464797973633,24.694442749023438,25.74467658996582
1759166658.5683825,1759166658.57353,29.59418296813965,0.023126602172851562,0.1633167266845703,21.049022674560547,21.212339401245117,21.43549919128418,22.370338439941406
1759166658.598116,1759166658.6030316,31.744003295898438,0.1342296600341797,0.13971328735351562,21.045207977294922,21.184921264648438,21.486997604370117,22.389650344848633
1759166658.629996,1759166658.632758,26.537179946899414,0.05745887756347656,0.1385211944580078,20.861148834228516,20.999670028686523,21.305084228515625,22.858142852783203
1759166658.6567364,1759166658.6617794,28.59187126159668,0.15664100646972656,0.1423358917236328,21.069049835205078,21.21138572692871,21.526575088500977,22.704124450683594
1759166658.68657,1759166658.689979,28.2132625579834,1.1475086212158203,0.1385211944580078,20.936012268066406,21.074533462524414,22.259950637817383,22.82094955444336
1759166658.7173817,1759166658.7197635,26.17645263671875,0.6580352783203125,0.14495849609375,21.14105224609375,21.2860107421875,22.064924240112305,22.97663688659668
1759166658.7440152,1759166658.7453682,30.195951461791992,4.938364028930664,0.13685226440429688,21.030664443969727,21.167516708374023,26.149511337280273,26.703834533691406
1759166658.774417,1759166658.7757661,29.2661190032959,3.9827823638916016,0.1373291015625,21.09527587890625,21.23260498046875,25.2530574798584,25.821685791015625
1759166658.803887,1759166658.8088691,28.83315086364746,0.1609325408935547,0.1373291015625,20.97463607788086,21.11196517944336,21.4385986328125,22.52817153930664
1759166658.832955,1759166658.8343015,33.58888626098633,4.162788391113281,0.14638900756835938,21.086692810058594,21.233081817626953,25.437593460083008,26.00884437561035
1759166658.8666844,1759166658.8685846,25.508880615234375,0.022172927856445312,0.1437664031982422,21.24786376953125,21.391630172729492,21.62027359008789,22.58133888244629
1759166658.8925784,1759166658.897517,31.21352195739746,1.0209083557128906,0.1437664031982422,21.359682083129883,21.503448486328125,22.55988121032715,23.497819900512695
1759166658.923939,1759166658.928277,29.919147491455078,0.13875961303710938,0.1571178436279297,21.336793899536133,21.493911743164062,21.811962127685547,22.95660972595215
1759166658.9542098,1759166658.958969,29.86884117126465,0.016450881958007812,0.16999244689941406,21.679401397705078,21.849393844604492,22.10402488708496,23.220539093017578
1759166658.9890363,1759166658.9908879,26.163816452026367,0.022172927856445312,0.1704692840576172,21.666288375854492,21.83675765991211,22.08113670349121,23.49543571472168
1759166659.0154197,1759166659.0194278,32.34410285949707,3.186464309692383,0.16641616821289062,21.645069122314453,21.811485290527344,25.03681182861328,25.75969696044922
1759166659.0514326,1759166659.0535326,27.016401290893555,0.05412101745605469,0.1633167266845703,21.628618240356445,21.791934967041016,22.08733558654785,23.381948471069336
1759166659.0788755,1759166659.084018,33.805131912231445,0.9443759918212891,0.16188621520996094,21.470308303833008,21.63219451904297,22.714614868164062,23.66781234741211
1759166659.1128414,1759166659.1159909,27.806997299194336,0.043392181396484375,0.16164779663085938,21.54827117919922,21.709918975830078,21.973848342895508,22.93229103088379
1759166659.1420555,1759166659.1468048,31.30650520324707,0.04315376281738281,0.1697540283203125,21.617412567138672,21.787166595458984,22.053241729736328,23.120641708374023
1759166659.1746225,1759166659.1780572,28.638601303100586,0.0209808349609375,0.15926361083984375,21.728992462158203,21.888256072998047,22.128582000732422,23.12016487121582
1759166659.2034228,1759166659.2048254,33.74910354614258,4.5909881591796875,0.16450881958007812,21.47507667541504,21.639585494995117,26.265621185302734,26.84926986694336
1759166659.237327,1759166659.2401195,29.353618621826172,0.042438507080078125,0.15854835510253906,21.481990814208984,21.640539169311523,21.903276443481445,22.844314575195312
1759166659.266838,1759166659.270799,30.672788619995117,0.019311904907226562,0.16021728515625,21.582841873168945,21.743059158325195,21.971464157104492,22.86529541015625
1759166659.2976637,1759166659.3016217,29.62946891784668,0.019550323486328125,0.16069412231445312,21.575927734375,21.736621856689453,22.064924240112305,23.06079864501953
1759166659.3297584,1759166659.3340962,28.5184383392334,0.021219253540039062,0.17714500427246094,21.914005279541016,22.091150283813477,22.400379180908203,23.456811904907227
1759166659.3601873,1759166659.366807,31.461000442504883,0.06222724914550781,0.18095970153808594,21.88277244567871,22.063732147216797,22.424697875976562,24.336814880371094
1759166659.3923404,1759166659.3993134,34.39807891845703,0.35381317138671875,0.18596649169921875,22.284507751464844,22.470474243164062,23.021459579467773,25.245189666748047
1759166659.4269261,1759166659.4285343,35.97545623779297,4.6482086181640625,0.18167495727539062,21.89350128173828,22.075176239013672,26.787996292114258,27.518510818481445
1759166659.4635983,1759166659.4650111,30.935287475585938,0.5576610565185547,0.17142295837402344,22.354602813720703,22.526025772094727,23.40865135192871,24.342060089111328
1759166659.4951952,1759166659.4990652,29.0219783782959,0.6892681121826172,0.2148151397705078,22.217988967895508,22.432804107666016,23.390769958496094,24.282455444335938
1759166659.5260468,1759166659.532387,35.41374206542969,0.2503395080566406,0.18930435180664062,21.94356918334961,22.13287353515625,22.540569305419922,23.65422248840332
1759166659.5615869,1759166659.5646272,28.760433197021484,0.02002716064453125,0.1728534698486328,21.78955078125,21.962404251098633,22.240877151489258,23.209571838378906
1759166659.592662,1759166659.5961673,29.389381408691406,0.5390644073486328,0.19788742065429688,21.79884910583496,21.996736526489258,22.742271423339844,23.78106117248535
1759166659.6253145,1759166659.6270943,27.817487716674805,1.596212387084961,0.1742839813232422,21.945953369140625,22.120237350463867,23.931503295898438,24.959802627563477
1759166659.6533387,1759166659.6577623,32.51218795776367,3.2668113708496094,0.1690387725830078,21.948814392089844,22.11785316467285,25.435209274291992,26.16429328918457
1759166659.6875362,1759166659.6916087,30.86256980895996,1.2369155883789062,0.16927719116210938,21.636486053466797,21.805763244628906,23.08821678161621,23.7274169921875
1759166659.7185695,1759166659.7241068,30.542850494384766,0.13589859008789062,0.16355514526367188,21.614789962768555,21.778345108032227,22.10092544555664,23.110389709472656
1759166659.751368,1759166659.754273,27.73880958557129,1.2047290802001953,0.17786026000976562,21.51322364807129,21.691083908081055,23.072004318237305,24.067401885986328
1759166659.78283,1759166659.7868698,29.84142303466797,0.9465217590332031,0.18787384033203125,22.131919860839844,22.319793701171875,23.476600646972656,24.69015121459961
1759166659.8129823,1759166659.818881,33.73074531555176,2.0208358764648438,0.17571449279785156,21.869659423828125,22.045373916625977,24.260282516479492,25.159835815429688
1759166659.849199,1759166659.8507755,33.40005874633789,2.379179000854492,0.16736984252929688,21.85511589050293,22.022485733032227,24.475574493408203,25.237083435058594
1759166659.8828235,1759166659.8859844,29.24203872680664,0.045299530029296875,0.1881122589111328,22.057294845581055,22.245407104492188,22.737979888916016,23.80967140197754
1759166659.9144616,1759166659.9184515,28.23805809020996,0.019550323486328125,0.18858909606933594,21.942615509033203,22.13120460510254,22.452831268310547,25.067806243896484
1759166659.9458818,1759166659.950789,30.406713485717773,0.1499652862548828,0.17976760864257812,22.00627326965332,22.1860408782959,22.58920669555664,23.94700050354004
1759166659.9779663,1759166659.983334,32.405853271484375,0.24938583374023438,0.1709461212158203,22.02582359313965,22.19676971435547,22.6593017578125,23.85735511779785
1759166660.0105176,1759166660.0159233,32.256364822387695,0.6892681121826172,0.1862049102783203,22.107601165771484,22.293806076049805,23.20098876953125,24.245500564575195
1759166660.0442243,1759166660.049234,34.41119194030762,0.14495849609375,0.18858909606933594,21.872520446777344,22.06110954284668,22.41659164428711,23.659467697143555
1759166660.0788858,1759166660.0812979,30.472278594970703,0.0438690185546875,0.2040863037109375,21.96979522705078,22.17388153076172,22.520780563354492,23.82373809814453
1759166660.1095479,1759166660.1117554,31.81934356689453,2.9561519622802734,0.186920166015625,21.965503692626953,22.152423858642578,25.175094604492188,26.549100875854492
1759166660.1419964,1759166660.147602,34.01041030883789,0.0209808349609375,0.1785755157470703,22.011756896972656,22.190332412719727,22.498130798339844,23.572921752929688
1759166660.1761794,1759166660.179851,33.852577209472656,0.14495849609375,0.17571449279785156,21.940231323242188,22.11594581604004,22.517681121826172,23.853302001953125
1759166660.2101948,1759166660.212875,32.7601432800293,0.02002716064453125,0.18024444580078125,22.095918655395508,22.27616310119629,22.58014678955078,23.926258087158203
1759166660.2437813,1759166660.24582,25.805950164794922,0.021696090698242188,0.1773834228515625,21.7745304107666,21.951913833618164,22.203683853149414,23.24676513671875
1759166660.2698278,1759166660.274324,33.156394958496094,3.15093994140625,0.1728534698486328,21.958589553833008,22.13144302368164,25.34770965576172,26.01766586303711
1759166660.3036394,1759166660.309918,36.46039962768555,0.5633831024169922,0.26535987854003906,21.988868713378906,22.254228591918945,23.07295799255371,24.244070053100586
1759166660.340272,1759166660.3420413,29.20699119567871,1.5783309936523438,0.1804828643798828,21.865367889404297,22.04585075378418,23.681640625,24.512529373168945
1759166660.3697648,1759166660.3714726,38.277387619018555,4.868507385253906,0.1990795135498047,22.380590438842773,22.579669952392578,27.517080307006836,28.24711799621582
1759166660.40822,1759166660.4098,27.783632278442383,0.021457672119140625,0.18024444580078125,21.98171615600586,22.16196060180664,22.47142791748047,23.694992065429688
1759166660.436228,1759166660.442374,33.39695930480957,0.3287792205810547,0.17714500427246094,22.005796432495117,22.182941436767578,22.71103858947754,26.0465145111084
1759166660.4708333,1759166660.4754822,30.95245361328125,0.13780593872070312,0.17976760864257812,22.144079208374023,22.3238468170166,22.716045379638672,24.042844772338867
1759166660.5034227,1759166660.5083537,30.997514724731445,0.19431114196777344,0.18858909606933594,22.10211753845215,22.290706634521484,22.74298667907715,25.16627311706543
1759166660.5362394,1759166660.5419178,31.57329559326172,0.057220458984375,0.1876354217529297,21.939754486083984,22.127389907836914,22.475719451904297,24.54543113708496
1759166660.5679758,1759166660.5739708,32.8216552734375,0.1609325408935547,0.17118453979492188,22.006750106811523,22.177934646606445,22.59540557861328,24.007797241210938
1759166660.6009798,1759166660.6064873,35.63070297241211,0.5681514739990234,0.1780986785888672,21.993160247802734,22.1712589263916,22.991180419921875,24.1239070892334
1759166660.6367943,1759166660.6399953,28.660297393798828,0.0438690185546875,0.1819133758544922,21.85821533203125,22.040128707885742,22.33147621154785,23.362398147583008
1759166660.6680107,1759166660.6720698,30.18975257873535,0.020265579223632812,0.18215179443359375,22.21202850341797,22.394180297851562,22.71580696105957,23.764848709106445
1759166660.7005658,1759166660.7033644,29.581069946289062,1.8284320831298828,0.19502639770507812,22.227048873901367,22.422075271606445,24.448394775390625,25.55394172668457
1759166660.7303643,1759166660.733414,34.95311737060547,4.966259002685547,0.18286705017089844,21.66295051574707,21.84581756591797,26.85999870300293,27.530908584594727
1759166660.7654946,1759166660.770171,32.34219551086426,0.043392181396484375,0.18310546875,22.3696231842041,22.5527286529541,22.90201187133789,24.126529693603516
1759166660.7980454,1759166660.7997935,36.62848472595215,4.105567932128906,0.19049644470214844,22.223711013793945,22.414207458496094,26.584863662719727,27.379989624023438
1759166660.8355908,1759166660.837507,28.34463119506836,0.04124641418457031,0.19550323486328125,22.13907241821289,22.334575653076172,22.699356079101562,23.919343948364258
1759166660.866588,1759166660.8703046,28.872251510620117,0.24318695068359375,0.18978118896484375,22.194623947143555,22.3844051361084,22.767066955566406,23.838043212890625
1759166660.895634,1759166660.8971038,39.85714912414551,5.127429962158203,0.15926361083984375,30.207395553588867,30.36665916442871,35.532236099243164,36.11588478088379
1759166660.9375777,1759166660.938895,41.2139892578125,2.504587173461914,0.1537799835205078,31.20875358581543,31.362533569335938,33.90812873840332,34.482717514038086
1759166660.97893,1759166660.980233,36.40341758728027,1.0385513305664062,0.14400482177734375,31.989574432373047,32.13357925415039,33.29730033874512,33.97870063781738
1759166661.0158062,1759166661.021464,40.90142250061035,0.5381107330322266,0.1380443572998047,31.63003921508789,31.768083572387695,32.470703125,33.25247764587402
1759166661.0568476,1759166661.0605552,39.96729850769043,1.7812252044677734,0.13780593872070312,31.928539276123047,32.06634521484375,33.97393226623535,34.65580940246582
1759166661.0969145,1759166661.1021807,40.68708419799805,0.23651123046875,0.1430511474609375,32.39297866821289,32.53602981567383,32.892704010009766,33.8289737701416
1759166661.1401181,1759166661.1424809,41.40353202819824,0.7398128509521484,0.14209747314453125,32.059669494628906,32.20176696777344,33.06722640991211,33.948659896850586
1759166661.1816676,1759166661.183587,36.37981414794922,0.05221366882324219,0.1609325408935547,32.14550018310547,32.30643272399902,32.55915641784668,33.6756706237793
1759166661.2181878,1759166661.2197003,43.289899826049805,4.684925079345703,0.14352798461914062,31.847238540649414,31.990766525268555,36.71145439147949,37.34755516052246
1759166661.2624624,1759166661.2640994,37.3835563659668,0.5271434783935547,0.13947486877441406,32.66096115112305,32.80043601989746,33.49614143371582,34.38758850097656
1759166661.30109,1759166661.3048913,38.87057304382324,0.7624626159667969,0.14257431030273438,31.95667266845703,32.099246978759766,32.982826232910156,33.861637115478516
1759166661.3401031,1759166661.345027,39.37029838562012,1.0116100311279297,0.13589859008789062,31.792163848876953,31.928062438964844,32.97710418701172,33.87141227722168
1759166661.381695,1759166661.3854043,41.710615158081055,1.0879039764404297,0.14519691467285156,32.0286750793457,32.173871994018555,33.37979316711426,34.09624099731445
1759166661.4235618,1759166661.426275,41.564226150512695,0.7107257843017578,0.13875961303710938,31.92901611328125,32.06777572631836,32.900333404541016,33.83779525756836
1759166661.4658394,1759166661.4675586,39.473533630371094,0.03910064697265625,0.13947486877441406,32.24825859069824,32.387733459472656,32.62686729431152,33.59699249267578
1759166661.5055058,1759166661.50803,39.75200653076172,0.041484832763671875,0.1380443572998047,32.071590423583984,32.20963478088379,32.45043754577637,33.47611427307129
1759166661.5455751,1759166661.5485487,38.18798065185547,0.04291534423828125,0.14138221740722656,33.04719924926758,33.188581466674805,33.48398208618164,34.61337089538574
1759166661.584216,1759166661.5893536,39.08419609069824,1.3494491577148438,0.1728534698486328,30.545711517333984,30.718564987182617,32.10186958312988,32.758235931396484
1759166661.623774,1759166661.6287577,40.007591247558594,1.0097026824951172,0.14519691467285156,31.903505325317383,32.048702239990234,33.0963134765625,33.9970588684082
1759166661.6654434,1759166661.6667717,39.03961181640625,3.3609867095947266,0.1399517059326172,31.988143920898438,32.128095626831055,35.52961349487305,36.12351417541504
1759166661.7045908,1759166661.7107167,40.15207290649414,0.019550323486328125,0.1361370086669922,31.89706802368164,32.03320503234863,32.2573184967041,33.11896324157715
1759166661.7458396,1759166661.7506745,39.69979286193848,0.1392364501953125,0.1399517059326172,32.27686882019043,32.41682052612305,32.716989517211914,33.780574798583984
1759166661.7874794,1759166661.789176,40.303945541381836,2.3975372314453125,0.14066696166992188,32.006025314331055,32.14669227600098,34.584999084472656,35.59064865112305
1759166661.828117,1759166661.832218,39.26348686218262,0.020742416381835938,0.13875961303710938,31.38899803161621,31.52775764465332,31.75044059753418,32.94801712036133
1759166661.8684967,1759166661.869779,38.24496269226074,2.086162567138672,0.1380443572998047,32.60159492492676,32.73963928222656,34.85894203186035,35.423994064331055
1759166661.9068828,1759166661.9123795,40.36355018615723,0.23674964904785156,0.13756752014160156,32.208919525146484,32.346487045288086,32.705068588256836,33.641815185546875
1759166661.9477584,1759166661.952854,41.53084754943848,0.13875961303710938,0.1354217529296875,32.55486488342285,32.69028663635254,32.99140930175781,34.03520584106445
1759166661.9894185,1759166661.994415,38.88130187988281,0.022411346435546875,0.14257431030273438,31.54277801513672,31.685352325439453,31.908750534057617,33.110618591308594
1759166662.0308871,1759166662.0339985,38.62810134887695,0.5612373352050781,0.1385211944580078,32.08017349243164,32.21869468688965,32.943010330200195,33.77866744995117
1759166662.0720146,1759166662.074322,38.22779655456543,0.6461143493652344,0.13971328735351562,31.93211555480957,32.071828842163086,32.8371524810791,33.70404243469238
1759166662.1105232,1759166662.115559,38.91253471374512,0.021457672119140625,0.1380443572998047,31.798362731933594,31.9364070892334,32.161712646484375,33.09988975524902
1759166662.1499047,1759166662.155571,41.44906997680664,0.5235671997070312,0.1380443572998047,31.71706199645996,31.855106353759766,32.53889083862305,33.344268798828125
1759166662.1914887,1759166662.1944451,39.17050361633301,2.1386146545410156,0.1373291015625,31.618833541870117,31.756162643432617,34.01446342468262,34.73639488220215
1759166662.2308807,1759166662.2363086,39.48521614074707,0.5176067352294922,0.1373291015625,31.893491744995117,32.03082084655762,32.71126747131348,33.46729278564453
1759166662.270574,1759166662.2719035,43.19047927856445,5.498170852661133,0.15020370483398438,31.902790069580078,32.05299377441406,37.59145736694336,38.169145584106445
1759166662.3139036,1759166662.3177197,37.88137435913086,0.04220008850097656,0.13637542724609375,31.65578842163086,31.792163848876953,32.03558921813965,33.05864334106445
1759166662.3538375,1759166662.355143,41.79048538208008,2.7642250061035156,0.13828277587890625,32.073259353637695,32.2115421295166,35.00962257385254,35.567522048950195
1759166662.3958132,1759166662.398289,39.85595703125,0.12874603271484375,0.1442432403564453,32.09948539733887,32.24372863769531,32.541751861572266,33.44416618347168
1759166662.4358172,1759166662.4382005,40.81535339355469,0.6966590881347656,0.13899803161621094,32.045841217041016,32.18483924865723,32.99975395202637,33.87951850891113
1759166662.4767654,1759166662.478056,36.24677658081055,1.5022754669189453,0.14209747314453125,31.86821937561035,32.01031684875488,33.550262451171875,34.10983085632324
1759166662.51445,1759166662.5197053,40.42315483093262,0.0209808349609375,0.13518333435058594,32.26494789123535,32.40013122558594,32.62734413146973,33.53571891784668
1759166662.5573628,1759166662.5597224,37.839412689208984,0.6418228149414062,0.14209747314453125,32.1347713470459,32.27686882019043,33.03241729736328,33.91456604003906
1759166662.595414,1759166662.6000695,43.23005676269531,0.7658004760742188,0.1354217529296875,32.25445747375488,32.38987922668457,33.27202796936035,34.13248062133789
1759166662.6388345,1759166662.6414669,39.3671989440918,0.049114227294921875,0.13589859008789062,31.937837600708008,32.0737361907959,32.330989837646484,33.47063064575195
1759166662.678343,1759166662.681714,38.22898864746094,0.057697296142578125,0.1442432403564453,32.19127655029297,32.335519790649414,32.596588134765625,33.754825592041016
1759166662.7178175,1759166662.7219875,38.84696960449219,0.055789947509765625,0.1361370086669922,32.11641311645508,32.25255012512207,32.50432014465332,33.646583557128906
1759166662.7570026,1759166662.762064,40.42649269104004,0.23436546325683594,0.13566017150878906,32.20534324645996,32.34100341796875,32.69219398498535,33.64253044128418
1759166662.8006754,1759166662.8023124,38.09213638305664,0.5452632904052734,0.13756752014160156,32.80758857727051,32.94515609741211,33.68401527404785,34.605979919433594
1759166662.8389509,1759166662.8439069,39.68453407287598,0.5495548248291016,0.1518726348876953,30.898094177246094,31.04996681213379,31.767606735229492,32.584428787231445
1759166662.8788445,1759166662.8838208,38.93232345581055,0.1518726348876953,0.14662742614746094,32.16743469238281,32.31406211853027,32.633066177368164,33.5845947265625
1759166662.9188387,1759166662.9246848,44.59714889526367,0.021219253540039062,0.14257431030273438,31.752586364746094,31.895160675048828,32.11712837219238,33.29205513000488
1759166662.963601,1759166662.9652748,35.60972213745117,0.021219253540039062,0.1437664031982422,31.554222106933594,31.697988510131836,31.9211483001709,33.170223236083984
1759166663.0007427,1759166663.004835,42.8311824798584,0.15020370483398438,0.13685226440429688,32.555580139160156,32.69243240356445,33.00333023071289,34.10148620605469
1759166663.0437174,1759166663.045581,40.16709327697754,0.05054473876953125,0.1354217529296875,32.327890396118164,32.46331214904785,32.71627426147461,33.71119499206543
1759166663.0845902,1759166663.0863352,38.48528861999512,0.016927719116210938,0.13709068298339844,32.37462043762207,32.51171112060547,32.72271156311035,33.71906280517578
1759166663.1249669,1759166663.1262348,36.56458854675293,1.0428428649902344,0.13971328735351562,31.705617904663086,31.8453311920166,33.00333023071289,33.728599548339844
1759166663.1619112,1759166663.1669052,41.2297248840332,0.055789947509765625,0.1354217529296875,32.810211181640625,32.94563293457031,33.20145606994629,34.322261810302734
1759166663.2040997,1759166663.206687,41.985511779785156,1.1360645294189453,0.1430511474609375,32.312870025634766,32.4559211730957,33.625125885009766,34.18874740600586
1759166663.246787,1759166663.248591,38.18488121032715,0.019311904907226562,0.13709068298339844,32.07063674926758,32.20772743225098,32.42206573486328,33.241987228393555
1759166663.2851076,1759166663.2863798,41.67532920837402,2.6636123657226562,0.14138221740722656,32.256364822387695,32.39774703979492,35.0956916809082,35.64596176147461
1759166663.3269668,1759166663.3294945,40.69399833679199,0.04673004150390625,0.13446807861328125,32.12308883666992,32.2575569152832,32.507896423339844,33.5080623626709
1759166663.368373,1759166663.3701384,36.516427993774414,0.016927719116210938,0.13685226440429688,32.02390670776367,32.16075897216797,32.381534576416016,33.39123725891113
1759166663.4065099,1759166663.408865,38.677215576171875,1.6758441925048828,0.13566017150878906,32.11474418640137,32.250404357910156,34.03949737548828,34.94524955749512
1759166663.4464443,1759166663.4505684,39.57176208496094,0.2281665802001953,0.1354217529296875,32.35626220703125,32.49168395996094,32.83858299255371,33.77723693847656
1759166663.4892335,1759166663.4907978,37.20998764038086,0.8504390716552734,0.13756752014160156,32.04226493835449,32.179832458496094,33.191680908203125,34.06977653503418
1759166663.52896,1759166663.5313091,41.4118766784668,0.6403923034667969,0.1392364501953125,32.3338508605957,32.473087310791016,33.23769569396973,34.09123420715332
1759166663.5710769,1759166663.5726738,37.98794746398926,0.03910064697265625,0.13589859008789062,32.06920623779297,32.20510482788086,32.444000244140625,33.34617614746094
1759166663.6092005,1759166663.612895,41.67985916137695,0.5071163177490234,0.1494884490966797,31.9061279296875,32.05561637878418,32.73129463195801,33.48398208618164
1759166663.6510596,1759166663.6530805,36.72146797180176,0.6184577941894531,0.13589859008789062,32.0587158203125,32.19461441040039,32.93180465698242,33.92601013183594
1759166663.6884487,1759166663.6937194,40.77553749084473,0.5383491516113281,0.13637542724609375,31.964778900146484,32.10115432739258,32.8066349029541,33.60557556152344
1759166663.7294047,1759166663.7344873,39.30091857910156,0.15616416931152344,0.1392364501953125,32.13214874267578,32.271385192871094,32.59110450744629,33.51426124572754
1759166663.768846,1759166663.7729633,40.662288665771484,2.2881031036376953,0.13589859008789062,31.97646141052246,32.11236000061035,34.438133239746094,35.48383712768555
1759166663.8097897,1759166663.8152132,40.58647155761719,0.5385875701904297,0.13947486877441406,31.92424774169922,32.06372261047363,32.76515007019043,33.55002403259277
1759166663.8519871,1759166663.8539891,38.36488723754883,2.115488052368164,0.13899803161621094,32.10616111755371,32.24515914916992,34.479618072509766,35.17580032348633
1759166663.8905628,1759166663.8940117,41.8241024017334,2.739429473876953,0.13947486877441406,32.23252296447754,32.37199783325195,35.14885902404785,35.69674491882324
1759166663.9325302,1759166663.9374425,40.624380111694336,0.019788742065429688,0.14352798461914062,31.958818435668945,32.102346420288086,32.318830490112305,33.18953514099121
1759166663.9747863,1759166663.9771023,37.3845100402832,0.9772777557373047,0.13756752014160156,31.55517578125,31.6927433013916,32.78517723083496,33.65683555603027
1759166664.0133872,1759166664.017164,42.27304458618164,0.7433891296386719,0.14209747314453125,32.2878360748291,32.42993354797363,33.29110145568848,34.13987159729004
1759166664.0558424,1759166664.0582411,39.327144622802734,0.05650520324707031,0.13566017150878906,32.66572952270508,32.80138969421387,33.05673599243164,34.13510322570801
1759166664.0953085,1759166664.096576,39.88957405090332,2.807140350341797,0.141143798828125,32.00817108154297,32.149314880371094,34.99245643615723,35.56632995605469
1759166664.13755,1759166664.1391573,37.82010078430176,0.5249977111816406,0.1354217529296875,31.908273696899414,32.0436954498291,32.73129463195801,33.61248970031738
1759166664.177709,1759166664.1793046,39.32929039001465,0.5185604095458984,0.13899803161621094,32.37175941467285,32.51075744628906,33.190011978149414,34.06262397766113
1759166664.2171845,1759166664.2199163,41.69321060180664,0.675201416015625,0.14519691467285156,32.1195125579834,32.26470947265625,33.060312271118164,33.93840789794922
1759166664.2590158,1759166664.2611487,39.88075256347656,0.042438507080078125,0.1354217529296875,32.19246864318848,32.327890396118164,32.56726264953613,33.57744216918945
1759166664.2990336,1759166664.3002882,36.96298599243164,1.1239051818847656,0.1423358917236328,32.40394592285156,32.546281814575195,33.70356559753418,34.245967864990234
1759166664.336333,1759166664.3416715,39.93535041809082,0.22673606872558594,0.13828277587890625,32.14716911315918,32.285451889038086,32.63235092163086,33.52808952331543
1759166664.3764112,1759166664.3819168,41.95737838745117,0.5335807800292969,0.14352798461914062,32.09543228149414,32.23896026611328,32.93347358703613,33.77056121826172
1759166664.4207516,1759166664.422637,39.40176963806152,0.05221366882324219,0.13756752014160156,32.01889991760254,32.15646743774414,32.408714294433594,33.42103958129883
1759166664.4603415,1759166664.4632106,39.07132148742676,0.04291534423828125,0.14519691467285156,31.580209732055664,31.725406646728516,31.969308853149414,33.326148986816406
1759166664.49952,1759166664.5028594,38.544654846191406,0.055789947509765625,0.13780593872070312,32.47809410095215,32.61590003967285,32.866716384887695,34.00230407714844
1759166664.5409749,1759166664.5422187,36.15164756774902,1.1196136474609375,0.1385211944580078,32.209157943725586,32.347679138183594,33.50090980529785,34.041404724121094
1759166664.578567,1759166664.5836895,41.06259346008301,0.019550323486328125,0.14090538024902344,32.477617263793945,32.61852264404297,32.845258712768555,33.72812271118164
1759166664.6206365,1759166664.6218963,38.61403465270996,2.770662307739258,0.13494491577148438,31.996488571166992,32.13143348693848,34.935712814331055,35.48479080200195
1759166664.6595953,1759166664.6649451,41.67985916137695,0.019073486328125,0.13709068298339844,32.0584774017334,32.1955680847168,32.41133689880371,33.281803131103516
1759166664.7014577,1759166664.7050862,40.55023193359375,0.05602836608886719,0.13756752014160156,32.15336799621582,32.29093551635742,32.55009651184082,33.6911678314209
1759166664.7421527,1759166664.743813,40.41290283203125,1.9152164459228516,0.13589859008789062,32.06896781921387,32.20486640930176,34.23452377319336,34.83176231384277
1759166664.782706,1759166664.7858224,38.01250457763672,0.5295276641845703,0.1385211944580078,32.05466270446777,32.19318389892578,32.88435935974121,33.687591552734375
1759166664.8253367,1759166664.826648,36.28396987915039,0.022411346435546875,0.141143798828125,32.34720230102539,32.488346099853516,32.71126747131348,33.64753723144531
1759166664.8629403,1759166664.8669603,40.479421615600586,0.15044212341308594,0.13327598571777344,32.20868110656738,32.341957092285156,32.654523849487305,33.808231353759766
1759166664.9037597,1759166664.90782,38.14983367919922,0.019311904907226562,0.13685226440429688,31.857967376708984,31.99481964111328,32.212257385253906,33.29133987426758
1759166664.942054,1759166664.9475617,41.94331169128418,0.7243156433105469,0.1442432403564453,31.98385238647461,32.128095626831055,33.01715850830078,33.83660316467285
1759166664.985617,1759166664.9879556,41.179656982421875,0.6406307220458984,0.13780593872070312,32.68837928771973,32.82618522644043,33.59222412109375,34.46674346923828
1759166665.0269365,1759166665.028179,40.540218353271484,1.130819320678711,0.1373291015625,32.163381576538086,32.300710678100586,33.469438552856445,34.01303291320801
1759166665.0676215,1759166665.0699492,37.128448486328125,0.020503997802734375,0.1461505889892578,32.024383544921875,32.17053413391113,32.39130973815918,33.30850601196289
1759166665.1068292,1759166665.1080859,37.32562065124512,2.021312713623047,0.13685226440429688,32.45806694030762,32.594919204711914,34.64937210083008,35.19725799560547
1759166665.1464713,1759166665.14777,42.54913330078125,2.958059310913086,0.13756752014160156,32.321929931640625,32.45949745178223,35.454750061035156,36.01193428039551
1759166665.1900396,1759166665.1915274,35.737037658691406,0.017404556274414062,0.1442432403564453,32.047271728515625,32.19151496887207,32.41300582885742,33.44464302062988
1759166665.2259183,1759166665.2317913,40.00544548034668,0.2651214599609375,0.1385211944580078,31.913280487060547,32.051801681518555,32.47404098510742,33.47039222717285
1759166665.2660654,1759166665.2697363,43.973445892333984,2.6955604553222656,0.1430511474609375,32.11164474487305,32.254695892333984,34.9884033203125,35.541534423828125
1759166665.3102257,1759166665.312768,41.563987731933594,0.040531158447265625,0.13685226440429688,33.85519981384277,33.99205207824707,34.51085090637207,35.81595420837402
1759166665.3529303,1759166665.3545313,35.5379581451416,1.4221668243408203,0.17023086547851562,30.083656311035156,30.253887176513672,31.83269500732422,32.71675109863281
1759166665.3887415,1759166665.3940184,41.99671745300293,0.5509853363037109,0.14090538024902344,31.422138214111328,31.56304359436035,32.27567672729492,33.06937217712402
1759166665.4322126,1759166665.4341412,37.40072250366211,0.052928924560546875,0.13494491577148438,32.12928771972656,32.26423263549805,32.52363204956055,33.547163009643555
1759166665.4697542,1759166665.4751327,39.48402404785156,0.02193450927734375,0.1404285430908203,31.705856323242188,31.846284866333008,32.06133842468262,33.30206871032715
1759166665.510793,1759166665.5151732,38.69032859802246,0.16045570373535156,0.1354217529296875,31.85129165649414,31.986713409423828,32.346487045288086,33.19382667541504
1759166665.5525467,1759166665.553819,38.73562812805176,1.7366409301757812,0.14162063598632812,32.29212760925293,32.43374824523926,34.2867374420166,34.96742248535156
1759166665.5925922,1759166665.5940611,40.39359092712402,2.38037109375,0.14328956604003906,31.984329223632812,32.12761878967285,34.62553024291992,35.442352294921875
1759166665.6331213,1759166665.6365106,38.548946380615234,0.05745887756347656,0.13828277587890625,32.299041748046875,32.43732452392578,32.692909240722656,33.817291259765625
1759166665.67176,1759166665.6771197,39.841413497924805,0.02002716064453125,0.13566017150878906,32.27090835571289,32.40656852722168,32.621145248413086,33.506155014038086
1759166665.711745,1759166665.7159235,40.865182876586914,1.9512176513671875,0.1361370086669922,32.02676773071289,32.16290473937988,34.14726257324219,35.034894943237305
1759166665.7529068,1759166665.7578437,39.93487358093262,0.056743621826171875,0.13589859008789062,32.37342834472656,32.50932693481445,32.77397155761719,33.9055061340332
1759166665.795548,1759166665.7978275,39.13617134094238,0.6101131439208984,0.14591217041015625,32.42301940917969,32.568931579589844,33.29586982727051,34.175872802734375
1759166665.8370144,1759166665.838635,37.50181198120117,0.5173683166503906,0.14400482177734375,31.99911117553711,32.14311599731445,32.8211784362793,33.71763229370117
1759166665.8747568,1759166665.8791895,40.57049751281738,0.5471706390380859,0.1361370086669922,31.869888305664062,32.006025314331055,32.715797424316406,33.510446548461914
1759166665.916426,1759166665.9177034,41.85032844543457,2.0618438720703125,0.13709068298339844,32.3636531829834,32.5007438659668,34.60264205932617,35.17580032348633
1759166665.9584177,1759166665.9611087,37.204742431640625,0.025510787963867188,0.1442432403564453,31.33082389831543,31.475067138671875,31.699657440185547,32.840728759765625
1759166665.9957619,1759166666.0009,41.718482971191406,0.020265579223632812,0.14328956604003906,32.26208686828613,32.40537643432617,32.63282775878906,33.52046012878418
1759166666.0376809,1759166666.0411963,37.874698638916016,0.13756752014160156,0.1342296600341797,32.29379653930664,32.42802619934082,32.72581100463867,33.759355545043945
1759166666.0757005,1759166666.08164,40.73953628540039,0.5426406860351562,0.13637542724609375,32.091379165649414,32.22775459289551,32.939910888671875,33.74433517456055
1759166666.1165962,1759166666.1200426,40.33660888671875,2.7551651000976562,0.13756752014160156,31.740903854370117,31.87847137451172,34.67392921447754,35.22515296936035
1759166666.1573706,1759166666.1627889,39.87908363342285,0.020503997802734375,0.13709068298339844,32.251596450805664,32.38868713378906,32.61137008666992,33.499717712402344
1759166666.1973472,1759166666.2017546,42.28949546813965,1.7325878143310547,0.14019012451171875,31.830549240112305,31.970739364624023,33.82396697998047,34.48605537414551
1759166666.2397752,1759166666.2433271,38.55180740356445,0.5362033843994141,0.1361370086669922,32.045602798461914,32.181739807128906,32.880544662475586,33.676862716674805
1759166666.2803078,1759166666.2815862,38.61260414123535,2.786874771118164,0.14400482177734375,32.04083442687988,32.18483924865723,35.01105308532715,35.6144905090332
1759166666.3190591,1759166666.3244996,41.347503662109375,0.5137920379638672,0.1380443572998047,31.906604766845703,32.04464912414551,32.72080421447754,33.47492218017578
1759166666.3605552,1759166666.3618398,41.60881042480469,3.6401748657226562,0.1423358917236328,31.84056282043457,31.982898712158203,35.74562072753906,36.39578819274902
1759166666.4023042,1759166666.403588,40.9088134765625,2.351999282836914,0.1404285430908203,32.054901123046875,32.195329666137695,34.66606140136719,35.349369049072266
1759166666.44333,1759166666.4456975,40.26389122009277,0.9434223175048828,0.1366138458251953,31.485319137573242,31.621932983398438,32.68170356750488,33.54001045227051
1759166666.4837773,1759166666.4863217,37.325382232666016,0.015497207641601562,0.13756752014160156,32.4244499206543,32.5620174407959,32.77468681335449,33.71763229370117
1759166666.5234172,1759166666.5246947,41.13650321960449,2.1758079528808594,0.13685226440429688,32.14859962463379,32.285451889038086,34.497737884521484,35.0804328918457
1759166666.5647442,1759166666.5672576,40.69161415100098,0.04029273986816406,0.14090538024902344,32.91177749633789,33.052682876586914,33.377647399902344,34.534454345703125
1759166666.6055927,1759166666.607238,40.56429862976074,1.9192695617675781,0.15974044799804688,31.0976505279541,31.25739097595215,33.29753875732422,33.93912315368652
1759166666.6465726,1759166666.6490562,36.5140438079834,0.019073486328125,0.14138221740722656,31.552553176879883,31.69393539428711,31.920671463012695,32.77230262756348
1759166666.6855617,1759166666.6871996,38.313865661621094,1.9087791442871094,0.13780593872070312,32.08422660827637,32.22203254699707,34.24549102783203,34.97648239135742
1759166666.7242079,1759166666.7292378,40.039777755737305,0.15807151794433594,0.14352798461914062,32.337188720703125,32.480716705322266,32.80210494995117,33.919334411621094
1759166666.7655654,1759166666.769665,39.2000675201416,0.1518726348876953,0.13828277587890625,32.42063522338867,32.55891799926758,32.8829288482666,33.99944305419922
1759166666.8059876,1759166666.8101714,39.298057556152344,0.1361370086669922,0.1347064971923828,32.633066177368164,32.76777267456055,33.06841850280762,34.11102294921875
1759166666.8459756,1759166666.8508759,39.07608985900879,0.15974044799804688,0.13780593872070312,32.43136405944824,32.569169998168945,32.88984298706055,34.00826454162598
1759166666.8860912,1759166666.89188,40.726661682128906,0.020265579223632812,0.14352798461914062,32.18507766723633,32.32860565185547,32.549381256103516,33.44607353210449
1759166666.928061,1759166666.9323447,39.91532325744629,0.2541542053222656,0.1456737518310547,31.66055679321289,31.806230545043945,32.17911720275879,33.53238105773926
1759166666.968114,1759166666.9716623,39.55864906311035,1.0724067687988281,0.13637542724609375,32.21726417541504,32.35363960266113,33.54358673095703,34.269094467163086
1759166667.0102327,1759166667.0125794,37.38903999328613,0.621795654296875,0.13756752014160156,32.224178314208984,32.361745834350586,33.10370445251465,33.983707427978516
1759166667.0477629,1759166667.0536416,42.60444641113281,0.29206275939941406,0.13828277587890625,32.05513954162598,32.19342231750488,32.64737129211426,34.519195556640625
1759166667.09051,1759166667.0940962,39.414167404174805,0.05626678466796875,0.13446807861328125,32.544851303100586,32.67931938171387,32.93418884277344,34.05284881591797
1759166667.1300645,1759166667.135163,39.08586502075195,0.02002716064453125,0.1366138458251953,32.01007843017578,32.14669227600098,32.36961364746094,33.25009346008301
1759166667.1696167,1759166667.1709237,40.31968116760254,4.941225051879883,0.13947486877441406,31.777381896972656,31.91685676574707,36.89146041870117,37.43863105773926
1759166667.211443,1759166667.212725,38.92660140991211,3.175973892211914,0.13709068298339844,32.31525421142578,32.45234489440918,35.66551208496094,36.22722625732422
1759166667.2505221,1759166667.2557554,43.00355911254883,0.8032321929931641,0.13756752014160156,32.17434883117676,32.31191635131836,33.155202865600586,34.2411994934082
1759166667.293666,1759166667.2949831,42.36340522766113,2.3822784423828125,0.14281272888183594,32.090187072753906,32.23299980163574,34.732818603515625,35.39085388183594
1759166667.336748,1759166667.338014,35.5377197265625,0.019788742065429688,0.13709068298339844,31.88467025756836,32.02176094055176,32.24039077758789,33.10346603393555
1759166667.3743641,1759166667.375635,38.4521484375,2.810239791870117,0.1442432403564453,32.03773498535156,32.18197822570801,35.027265548706055,35.593271255493164
1759166667.41296,1759166667.4142735,44.39187049865723,4.949331283569336,0.1366138458251953,31.635046005249023,31.77165985107422,36.76009178161621,37.30511665344238
1759166667.4574928,1759166667.458809,36.44967079162598,0.5099773406982422,0.13947486877441406,32.30929374694824,32.448768615722656,33.12087059020996,33.88810157775879
1759166667.4940856,1759166667.4994996,39.55245018005371,0.24008750915527344,0.13828277587890625,32.265663146972656,32.40394592285156,32.76324272155762,33.72502326965332
1759166667.5349283,1759166667.540143,41.8696403503418,0.14853477478027344,0.13685226440429688,32.2422981262207,32.379150390625,32.69004821777344,33.58912467956543
1759166667.5769267,1759166667.5806284,38.47837448120117,0.1277923583984375,0.14472007751464844,32.42826461791992,32.57298469543457,32.86290168762207,33.750057220458984
1759166667.6158593,1759166667.6211257,40.10772705078125,0.22840499877929688,0.13685226440429688,32.32407569885254,32.460927963256836,32.81116485595703,33.74433517456055
1759166667.6583889,1759166667.6596599,42.01364517211914,2.1212100982666016,0.13875961303710938,32.511234283447266,32.649993896484375,34.80935096740723,35.387516021728516
1759166667.700546,1759166667.7018387,37.07575798034668,1.3399124145507812,0.2906322479248047,31.50629997253418,31.796932220458984,33.17403793334961,33.74767303466797
1759166667.740114,1759166667.742406,41.23663902282715,0.621795654296875,0.1342296600341797,32.31954574584961,32.45377540588379,33.19954872131348,34.05952453613281
1759166667.7820606,1759166667.7838595,37.3682975769043,0.019073486328125,0.13637542724609375,32.056331634521484,32.19270706176758,32.410621643066406,33.223628997802734
1759166667.8198776,1759166667.823394,41.01729393005371,0.9922981262207031,0.14209747314453125,32.113075256347656,32.25517272949219,33.36167335510254,34.07716751098633
1759166667.8610282,1759166667.8623033,37.77050971984863,2.7015209197998047,0.13566017150878906,31.874895095825195,32.010555267333984,34.75189208984375,35.32147407531738
1759166667.8989427,1759166667.9033515,42.20747947692871,1.9164085388183594,0.1418590545654297,32.628536224365234,32.770395278930664,34.72423553466797,35.60757637023926
1759166667.9412885,1759166667.945809,41.448354721069336,0.05459785461425781,0.14066696166992188,32.25564956665039,32.39631652832031,32.64880180358887,33.77580642700195
1759166667.9828773,1759166667.9860327,38.597822189331055,0.05650520324707031,0.14162063598632812,32.605648040771484,32.74726867675781,33.00356864929199,34.14463996887207
1759166668.0239644,1759166668.0262828,37.65296936035156,0.6442070007324219,0.1380443572998047,32.25827217102051,32.39631652832031,33.15472602844238,34.01970863342285
1759166668.0617373,1759166668.0671237,40.57955741882324,0.5371570587158203,0.13566017150878906,31.94737434387207,32.08303451538086,32.781362533569336,33.566951751708984
1759166668.1035829,1759166668.1074774,41.42951965332031,0.2498626708984375,0.14066696166992188,32.582759857177734,32.723426818847656,33.09941291809082,34.09290313720703
1759166668.1457458,1759166668.1486259,38.76042366027832,0.19121170043945312,0.1366138458251953,32.03630447387695,32.17291831970215,32.52577781677246,33.64706039428711
1759166668.1848295,1759166668.1891613,38.73085975646973,0.033855438232421875,0.14019012451171875,32.32288360595703,32.46307373046875,32.69672393798828,33.87284278869629
1759166668.2250123,1759166668.2292242,39.20102119445801,0.5929470062255859,0.1366138458251953,32.08422660827637,32.22084045410156,32.93132781982422,33.902883529663086
1759166668.264357,1759166668.2656736,44.68083381652832,4.602909088134766,0.13709068298339844,32.1047306060791,32.2418212890625,36.88192367553711,37.43338584899902
1759166668.3092246,1759166668.3109868,37.4143123626709,0.016689300537109375,0.1361370086669922,32.06992149353027,32.206058502197266,32.425642013549805,33.34665298461914
1759166668.3467646,1759166668.3480365,42.42300987243652,3.3600330352783203,0.14543533325195312,32.21845626831055,32.3638916015625,35.759687423706055,36.324501037597656
1759166668.3894258,1759166668.391802,39.781808853149414,0.2741813659667969,0.13518333435058594,32.369136810302734,32.50432014465332,32.94205665588379,33.96725654602051
1759166668.4293478,1759166668.4306648,37.774085998535156,2.392292022705078,0.14209747314453125,31.490325927734375,31.632423400878906,34.142494201660156,34.80124473571777
1759166668.467451,1759166668.47278,40.181636810302734,0.021219253540039062,0.1366138458251953,32.29498863220215,32.431602478027344,32.65261650085449,33.553123474121094
1759166668.509991,1759166668.5116227,37.34612464904785,1.9087791442871094,0.1361370086669922,31.893253326416016,32.02939033508301,34.05141830444336,34.712791442871094
1759166668.5474823,1759166668.5515778,41.01157188415527,2.458810806274414,0.1366138458251953,32.14550018310547,32.282114028930664,34.78097915649414,35.84599494934082
1759166668.588647,1759166668.5940242,40.88330268859863,0.22363662719726562,0.1380443572998047,32.44519233703613,32.58323669433594,32.9279899597168,33.814191818237305
1759166668.6327593,1759166668.6346765,36.48185729980469,0.051021575927734375,0.13756752014160156,32.61709213256836,32.75465965270996,33.00809860229492,34.00063514709473
1759166668.6698973,1759166668.6751516,41.33152961730957,0.2262592315673828,0.14925003051757812,32.45401382446289,32.60326385498047,32.94491767883301,33.80298614501953
1759166668.7121973,1759166668.7134614,42.233943939208984,2.807140350341797,0.1418590545654297,32.062530517578125,32.204389572143555,35.05682945251465,35.636186599731445
1759166668.7551444,1759166668.7569342,38.622379302978516,0.018596649169921875,0.1404285430908203,32.0127010345459,32.15312957763672,32.37152099609375,33.18428993225098
1759166668.7939107,1759166668.795579,40.07458686828613,1.9352436065673828,0.13756752014160156,32.19127655029297,32.32884407043457,34.37924385070801,35.0494384765625
1759166668.8340874,1759166668.8379962,40.205955505371094,0.03814697265625,0.13685226440429688,32.007455825805664,32.14430809020996,32.38344192504883,33.33091735839844
1759166668.8744807,1759166668.8784046,40.731191635131836,0.1919269561767578,0.1437664031982422,31.955718994140625,32.09948539733887,32.44805335998535,33.80084037780762
1759166668.916694,1759166668.9186451,36.63039207458496,0.050067901611328125,0.13399124145507812,32.440185546875,32.57417678833008,32.82356262207031,33.942461013793945
1759166668.953669,1759166668.9550002,45.046329498291016,4.528284072875977,0.1366138458251953,32.048702239990234,32.18531608581543,36.749839782714844,37.31369972229004
1759166668.9988961,1759166669.00018,36.91697120666504,0.02002716064453125,0.14448165893554688,31.953096389770508,32.097578048706055,32.319068908691406,33.16926956176758
1759166669.0359094,1759166669.0403805,41.86129570007324,0.04100799560546875,0.1430511474609375,32.27353096008301,32.416582107543945,32.65643119812012,33.65159034729004
1759166669.077915,1759166669.079287,41.376590728759766,1.7499923706054688,0.1373291015625,32.2115421295166,32.3488712310791,34.23023223876953,34.897804260253906
1759166669.119996,1759166669.1216476,35.737037658691406,0.03814697265625,0.13780593872070312,32.14526176452637,32.28306770324707,32.52005577087402,33.425092697143555
1759166669.1558757,1759166669.1602628,42.569637298583984,1.9385814666748047,0.13566017150878906,31.96096420288086,32.09662437438965,34.06858444213867,34.96241569519043
1759166669.1985943,1759166669.2022176,38.53344917297363,0.055789947509765625,0.133514404296875,32.52387046813965,32.65738487243652,32.91916847229004,34.049272537231445
1759166669.2374148,1759166669.2432077,40.18449783325195,0.018835067749023438,0.13780593872070312,32.135009765625,32.2728157043457,32.489776611328125,33.65683555603027
1759166669.2794309,1759166669.2817836,38.99550437927246,1.9862651824951172,0.1366138458251953,32.13977813720703,32.27639198303223,34.375905990600586,35.23588180541992
1759166669.3196542,1759166669.3240597,41.53132438659668,0.018358230590820312,0.1373291015625,32.32383728027344,32.46116638183594,32.67693519592285,33.50114822387695
1759166669.3613307,1759166669.362995,40.98677635192871,2.2754669189453125,0.14591217041015625,31.213998794555664,31.35991096496582,33.74886512756348,34.392356872558594
1759166669.4030218,1759166669.404947,39.17646408081055,0.04172325134277344,0.14519691467285156,32.02700614929199,32.172203063964844,32.41395950317383,33.45608711242676
1759166669.4431689,1759166669.4452,38.35153579711914,0.1773834228515625,0.1437664031982422,31.822681427001953,31.966447830200195,32.312631607055664,33.67352485656738
1759166669.4833753,1759166669.4850495,38.24949264526367,0.5540847778320312,0.13780593872070312,32.16409683227539,32.301902770996094,32.9747200012207,34.08002853393555
1759166669.523055,1759166669.5258257,37.71018981933594,0.05698204040527344,0.1366138458251953,32.477378845214844,32.61399269104004,32.87959098815918,33.99801254272461
1759166669.5617905,1759166669.5657482,42.95825958251953,1.1522769927978516,0.19669532775878906,32.27400779724121,32.470703125,33.65921974182129,34.63149070739746
1759166669.6049058,1759166669.6061752,40.55905342102051,1.1374950408935547,0.1347064971923828,32.21011161804199,32.344818115234375,33.51950645446777,34.069061279296875
1759166669.6456187,1759166669.6469092,37.12630271911621,1.0218620300292969,0.13899803161621094,32.11855888366699,32.2575569152832,33.39791297912598,34.07478332519531
1759166669.683968,1759166669.6852438,39.16668891906738,3.0465126037597656,0.13709068298339844,32.262325286865234,32.39941596984863,35.485029220581055,36.05365753173828
1759166669.7232356,1759166669.728791,39.71099853515625,0.040531158447265625,0.1373291015625,32.234907150268555,32.372236251831055,32.6085090637207,33.622026443481445
1759166669.7645378,1759166669.769565,40.85898399353027,0.020265579223632812,0.1380443572998047,32.022953033447266,32.16099739074707,32.378435134887695,33.25653076171875
1759166669.807728,1759166669.809349,36.73052787780762,0.5292892456054688,0.14257431030273438,32.40084648132324,32.54342079162598,33.23698043823242,34.13033485412598
1759166669.8446155,1759166669.848971,40.5430793762207,1.7538070678710938,0.1366138458251953,32.13644027709961,32.273054122924805,34.145355224609375,34.80195999145508
1759166669.8861687,1759166669.8902311,39.2613410949707,1.125335693359375,0.13971328735351562,32.0284366607666,32.16814994812012,33.41031074523926,34.21783447265625
1759166669.9261804,1759166669.9274971,145.30348777770996,4.488229751586914,0.13947486877441406,133.68773460388184,133.82720947265625,138.3802890777588,139.01948928833008
1759166670.0716538,1759166670.0762994,36.69309616088867,0.1633167266845703,0.17690658569335938,29.050827026367188,29.227733612060547,29.5712947845459,30.71308135986328
1759166670.109656,1759166670.1135461,41.98169708251953,1.0025501251220703,0.14591217041015625,31.384944915771484,31.53085708618164,32.572031021118164,33.26296806335449
1759166670.1517801,1759166670.153065,38.47050666809082,1.260995864868164,0.14019012451171875,31.790733337402344,31.930923461914062,33.23173522949219,33.79487991333008
1759166670.1905863,1759166670.194668,38.67530822753906,0.019073486328125,0.1385211944580078,31.850814819335938,31.989336013793945,32.20725059509277,32.97829627990723
1759166670.231121,1759166670.2348216,37.9941463470459,0.3554821014404297,0.1404285430908203,31.63599967956543,31.77642822265625,32.28950500488281,33.20026397705078
1759166670.2692566,1759166670.2741084,39.795875549316406,1.0290145874023438,0.13685226440429688,32.274484634399414,32.41133689880371,33.48064422607422,34.39521789550781
1759166670.3102915,1759166670.3156006,39.68667984008789,0.15211105346679688,0.1380443572998047,32.20415115356445,32.34219551086426,32.654762268066406,33.905982971191406
1759166670.35046,1759166670.3564599,40.771484375,0.017881393432617188,0.14090538024902344,31.721830368041992,31.862735748291016,32.090187072753906,33.36071968078613
1759166670.3914125,1759166670.3965423,40.73643684387207,0.14662742614746094,0.13637542724609375,32.05728530883789,32.193660736083984,32.502174377441406,33.434391021728516
1759166670.4323862,1759166670.437125,39.05653953552246,0.14829635620117188,0.13875961303710938,31.905174255371094,32.0439338684082,32.35173225402832,33.281803131103516
1759166670.4715526,1759166670.4777918,40.4047966003418,0.020742416381835938,0.13947486877441406,31.818389892578125,31.95786476135254,32.181501388549805,33.24413299560547
1759166670.5135698,1759166670.5148425,40.252685546875,3.187417984008789,0.13709068298339844,32.30404853820801,32.441139221191406,35.704851150512695,36.2701416015625
1759166670.5547898,1759166670.5560627,38.56849670410156,3.064393997192383,0.13947486877441406,31.432390213012695,31.57186508178711,34.67440605163574,35.21990776062012
1759166670.5958316,1759166670.5981143,39.740562438964844,0.6177425384521484,0.13875961303710938,32.659053802490234,32.797813415527344,33.533334732055664,34.37232971191406
1759166670.6381102,1759166670.6397355,36.908626556396484,0.037670135498046875,0.14138221740722656,32.0127010345459,32.154083251953125,32.393455505371094,33.31184387207031
1759166670.6751559,1759166670.6784945,40.37165641784668,1.9314289093017578,0.14495849609375,31.611919403076172,31.756877899169922,33.80155563354492,34.50131416320801
1759166670.7156713,1759166670.7173438,40.4210090637207,3.2482147216796875,0.1380443572998047,32.03439712524414,32.172441482543945,35.5381965637207,36.19241714477539
1759166670.756232,1759166670.7575388,42.46973991394043,3.6780834197998047,0.13899803161621094,31.91518783569336,32.05418586730957,35.85076332092285,36.531686782836914
1759166670.7991607,1759166670.8004122,40.5426025390625,1.050710678100586,0.14281272888183594,32.18436241149902,32.32717514038086,33.41555595397949,33.95533561706543
1759166670.8404202,1759166670.8421674,35.955190658569336,0.01621246337890625,0.13566017150878906,31.92424774169922,32.05990791320801,32.274484634399414,33.341169357299805
1759166670.876522,1759166670.8817606,40.80963134765625,0.9362697601318359,0.1366138458251953,31.834125518798828,31.970739364624023,32.942771911621094,33.72311592102051
1759166670.9198315,1759166670.9221687,37.63914108276367,0.6339550018310547,0.1342296600341797,32.404422760009766,32.538652420043945,33.289194107055664,34.15799140930176
1759166670.9576218,1759166670.9627569,39.72339630126953,0.8304119110107422,0.13637542724609375,32.12428092956543,32.26065635681152,33.206939697265625,34.03663635253906
1759166670.9974415,1759166670.9987779,41.45407676696777,5.36036491394043,0.13828277587890625,31.966447830200195,32.1047306060791,37.5058650970459,38.07663917541504
1759166671.0391226,1759166671.0448031,39.87908363342285,0.0209808349609375,0.13685226440429688,31.837940216064453,31.97479248046875,32.196044921875,33.4012508392334
1759166671.0806108,1759166671.0818875,42.22726821899414,3.0472278594970703,0.13637542724609375,32.40489959716797,32.54127502441406,35.62736511230469,36.16952896118164
1759166671.1230245,1759166671.1255457,40.94672203063965,0.018358230590820312,0.1366138458251953,32.358407974243164,32.49502182006836,32.71174430847168,33.54930877685547
1759166671.1646903,1759166671.1664658,35.69960594177246,0.018358230590820312,0.1430511474609375,31.9826602935791,32.12571144104004,32.33790397644043,33.13469886779785
1759166671.2004883,1759166671.2062593,41.207075119018555,0.6287097930908203,0.13828277587890625,32.07683563232422,32.215118408203125,32.955169677734375,33.85758399963379
1759166671.2429616,1759166671.2468495,40.69328308105469,0.2429485321044922,0.13685226440429688,32.269954681396484,32.40680694580078,32.77444839477539,33.79654884338379
1759166671.2837903,1759166671.285043,38.622379302978516,2.740621566772461,0.13828277587890625,32.213449478149414,32.35173225402832,35.13050079345703,35.67671775817871
1759166671.324383,1759166671.327971,38.213253021240234,0.05555152893066406,0.13780593872070312,32.49859809875488,32.636404037475586,32.89294242858887,33.9961051940918
1759166671.3640609,1759166671.368424,39.552927017211914,0.5319118499755859,0.13875961303710938,32.05585479736328,32.19461441040039,32.88888931274414,33.68186950683594
1759166671.4039438,1759166671.4089768,39.798736572265625,0.148773193359375,0.13756752014160156,32.25278854370117,32.39035606384277,32.698869705200195,33.73408317565918
1759166671.4438746,1759166671.4492712,39.35956954956055,0.1366138458251953,0.1437664031982422,32.24778175354004,32.39154815673828,32.69076347351074,33.704280853271484
1759166671.4846733,1759166671.4899223,41.08858108520508,0.020265579223632812,0.1354217529296875,32.30714797973633,32.442569732666016,32.678842544555664,33.56599807739258
1759166671.526753,1759166671.5280213,39.69550132751465,3.119230270385742,0.13899803161621094,31.516313552856445,31.655311584472656,34.80839729309082,35.35151481628418
1759166671.5688324,1759166671.5707262,40.006160736083984,0.049591064453125,0.1361370086669922,32.517194747924805,32.6533317565918,32.90867805480957,33.902883529663086
1759166671.6089773,1759166671.6102664,41.01109504699707,1.1401176452636719,0.14281272888183594,32.49955177307129,32.642364501953125,33.81848335266113,34.377336502075195
1759166671.6501296,1759166671.6514404,37.69230842590332,1.0058879852294922,0.14591217041015625,32.03439712524414,32.1803092956543,33.30397605895996,33.95795822143555
1759166671.6881082,1759166671.6930773,39.28685188293457,0.019311904907226562,0.1354217529296875,31.86774253845215,32.003164291381836,32.22489356994629,33.10370445251465
1759166671.7278423,1759166671.7329972,41.91112518310547,0.1506805419921875,0.1361370086669922,32.29928016662598,32.43541717529297,32.74703025817871,33.85424613952637
1759166671.769888,1759166671.7735846,41.727542877197266,0.5004405975341797,0.13589859008789062,31.963348388671875,32.099246978759766,32.7606201171875,33.50949287414551
1759166671.811799,1759166671.813569,36.60774230957031,0.8292198181152344,0.1418590545654297,31.93354606628418,32.07540512084961,33.028364181518555,33.84566307067871
1759166671.8494027,1759166671.8546286,40.53068161010742,0.020503997802734375,0.13566017150878906,32.34100341796875,32.47666358947754,32.69600868225098,33.59055519104004
1759166671.8931186,1759166671.8947277,37.11080551147461,0.5166530609130859,0.1354217529296875,32.23752975463867,32.37295150756836,33.04719924926758,33.930063247680664
1759166671.9321022,1759166671.9350247,39.15858268737793,0.736236572265625,0.13756752014160156,32.15813636779785,32.29570388793945,33.15091133117676,33.98299217224121
1759166671.9713998,1759166671.9759774,39.687156677246094,0.05555152893066406,0.13875961303710938,32.21940994262695,32.35816955566406,32.624006271362305,33.74671936035156
1759166672.01297,1759166672.0142598,41.80479049682617,2.4483203887939453,0.13899803161621094,32.10258483886719,32.2415828704834,34.723758697509766,35.27212142944336
1759166672.0549147,1759166672.056213,37.11962699890137,1.0437965393066406,0.13780593872070312,32.1202278137207,32.258033752441406,33.419132232666016,34.07764434814453
1759166672.093181,1759166672.0970588,39.85166549682617,0.5917549133300781,0.13756752014160156,32.033681869506836,32.17124938964844,32.8826904296875,33.89239311218262
1759166672.1331708,1759166672.134443,39.566755294799805,3.820180892944336,0.13518333435058594,31.754732131958008,31.889915466308594,35.74824333190918,36.28993034362793
1759166672.173951,1759166672.1752439,42.13571548461914,3.144979476928711,0.14328956604003906,32.1040153503418,32.247304916381836,35.430192947387695,35.981178283691406
1759166672.2162259,1759166672.2185755,37.552595138549805,0.054836273193359375,0.13637542724609375,32.25517272949219,32.39154815673828,32.64904022216797,33.77819061279297
1759166672.2569885,1759166672.2588925,37.932395935058594,0.05078315734863281,0.1354217529296875,32.259464263916016,32.3948860168457,32.64307975769043,33.63394737243652
1759166672.2960987,1759166672.299392,40.06361961364746,0.1456737518310547,0.1380443572998047,31.981706619262695,32.1197509765625,32.422542572021484,33.27155113220215
1759166672.336593,1759166672.3378541,41.47458076477051,2.359628677368164,0.1392364501953125,31.790971755981445,31.930208206176758,34.4085693359375,35.074472427368164
1759166672.378216,1759166672.3805175,37.40549087524414,0.019550323486328125,0.13899803161621094,31.815290451049805,31.954288482666016,32.1812629699707,32.97901153564453
1759166672.4157596,1759166672.4205995,38.78450393676758,0.15020370483398438,0.13756752014160156,32.22012519836426,32.35769271850586,32.66549110412598,33.597469329833984
1759166672.4547455,1759166672.4560602,44.09003257751465,5.373239517211914,0.14352798461914062,31.79001808166504,31.93354606628418,37.34707832336426,37.932634353637695
1759166672.4989705,1759166672.5016828,37.92595863342285,0.05602836608886719,0.13685226440429688,31.617403030395508,31.754255294799805,32.01651573181152,33.42628479003906
1759166672.537039,1759166672.5415723,41.35322570800781,0.0400543212890625,0.16236305236816406,32.17005729675293,32.332420349121094,32.56487846374512,33.57338905334473
1759166672.5785367,1759166672.5818696,37.82939910888672,0.054836273193359375,0.13327598571777344,32.228946685791016,32.36222267150879,32.61232376098633,33.692359924316406
1759166672.616515,1759166672.622043,44.80242729187012,0.5323886871337891,0.13589859008789062,31.89229965209961,32.0281982421875,32.71818161010742,33.4932804107666
1759166672.6614616,1759166672.662788,36.83805465698242,0.021457672119140625,0.1380443572998047,32.07731246948242,32.21535682678223,32.433271408081055,33.277034759521484
1759166672.6996017,1759166672.7010972,41.6874885559082,2.388477325439453,0.14328956604003906,31.73065185546875,31.87394142150879,34.3775749206543,35.20703315734863
1759166672.7420323,1759166672.743825,35.64023971557617,0.018835067749023438,0.13828277587890625,31.898975372314453,32.03725814819336,32.251596450805664,33.052921295166016
1759166672.7778156,1759166672.7824543,42.50001907348633,1.7638206481933594,0.13518333435058594,31.895875930786133,32.03105926513672,33.90765190124512,34.571170806884766
1759166672.8204982,1759166672.8222349,38.13934326171875,2.034425735473633,0.1366138458251953,32.14120864868164,32.277822494506836,34.35182571411133,34.91377830505371
1759166672.858779,1759166672.8633173,40.923357009887695,1.1298656463623047,0.15211105346679688,32.96828269958496,33.12039375305176,34.2867374420166,34.83438491821289
1759166672.9000444,1759166672.9013636,42.96731948852539,4.584074020385742,0.13446807861328125,35.44425964355469,35.57872772216797,40.200233459472656,40.740251541137695
1759166672.9453049,1759166672.949371,41.266441345214844,0.15473365783691406,0.13780593872070312,35.433292388916016,35.57109832763672,35.89057922363281,37.026405334472656
1759166672.986669,1759166672.9880118,42.578697204589844,5.475044250488281,0.14019012451171875,33.028364181518555,33.16855430603027,38.6812686920166,39.224863052368164
1759166673.0313177,1759166673.0325882,41.20182991027832,2.05230712890625,0.13756752014160156,31.879425048828125,32.01699256896973,34.10649299621582,34.659624099731445
1759166673.0726602,1759166673.0739634,39.877891540527344,0.9381771087646484,0.1366138458251953,32.135009765625,32.271623611450195,33.329010009765625,33.991336822509766
1759166673.1126735,1759166673.115097,39.759159088134766,0.13375282287597656,0.1361370086669922,32.15670585632324,32.292842864990234,32.58705139160156,33.6003303527832
1759166673.1525805,1759166673.1539538,39.743900299072266,1.7673969268798828,0.13899803161621094,31.836271286010742,31.975269317626953,33.86044502258301,34.511566162109375
1759166673.192463,1759166673.1956384,39.82710838317871,0.5528926849365234,0.1373291015625,31.735897064208984,31.873226165771484,32.590389251708984,33.421993255615234
1759166673.2324278,1759166673.2361875,37.89043426513672,0.26535987854003906,0.1423358917236328,31.827211380004883,31.969547271728516,32.404184341430664,33.173322677612305
1759166673.2707856,1759166673.2753365,41.129350662231445,1.1169910430908203,0.14281272888183594,32.19461441040039,32.33742713928223,33.4925651550293,34.03210639953613
1759166673.312056,1759166673.3170772,39.79325294494629,0.020503997802734375,0.13709068298339844,32.04751014709473,32.184600830078125,32.40561485290527,33.297061920166016
1759166673.3530865,1759166673.354364,39.11447525024414,3.0355453491210938,0.14328956604003906,32.012224197387695,32.155513763427734,35.223960876464844,35.77136993408203
1759166673.392407,1759166673.3973606,40.465354919433594,0.1571178436279297,0.1366138458251953,32.086849212646484,32.22346305847168,32.540321350097656,33.574819564819336
1759166673.4330106,1759166673.4376307,43.09439659118652,0.22149085998535156,0.13518333435058594,32.64665603637695,32.78183937072754,33.12516212463379,34.06715393066406
1759166673.4762385,1759166673.4788978,40.91835021972656,0.05626678466796875,0.13685226440429688,35.5992317199707,35.736083984375,35.98737716674805,37.332773208618164
1759166673.5182579,1759166673.5223668,42.90056228637695,0.1575946807861328,0.1373291015625,35.68863868713379,35.82596778869629,36.14544868469238,37.177324295043945
1759166673.5612948,1759166673.5665643,43.38836669921875,0.020265579223632812,0.1366138458251953,35.355329513549805,35.491943359375,35.71200370788574,36.6063117980957
1759166673.6059258,1759166673.6098568,38.69175910949707,0.24819374084472656,0.1366138458251953,32.20653533935547,32.343149185180664,32.71079063415527,33.72025489807129
1759166673.647552,1759166673.6498318,37.926435470581055,0.6325244903564453,0.14162063598632812,32.216787338256836,32.358407974243164,33.10728073120117,33.97321701049805
1759166673.685692,1759166673.6905766,38.73801231384277,0.05507469177246094,0.13685226440429688,32.189130783081055,32.32598304748535,32.58204460144043,33.73551368713379
1759166673.7272072,1759166673.7294915,42.27423667907715,1.5184879302978516,0.1354217529296875,32.48262405395508,32.618045806884766,34.249305725097656,35.096168518066406
1759166673.7696276,1759166673.7708945,36.621809005737305,0.9434223175048828,0.13875961303710938,31.870126724243164,32.00888633728027,33.06984901428223,33.72383117675781
1759166673.8066287,1759166673.811682,39.35050964355469,0.05555152893066406,0.1366138458251953,32.21535682678223,32.35197067260742,32.605886459350586,33.750295639038086
1759166673.846458,1759166673.8518775,41.02635383605957,0.5223751068115234,0.1461505889892578,32.13953971862793,32.28569030761719,32.96804428100586,33.72383117675781
1759166673.8876758,1759166673.8929465,40.497541427612305,0.020265579223632812,0.1354217529296875,31.994342803955078,32.129764556884766,32.35197067260742,33.22148323059082
1759166673.9284382,1759166673.9334064,39.492130279541016,0.019311904907226562,0.14662742614746094,31.689167022705078,31.83579444885254,32.051801681518555,33.17618370056152
1759166673.9704459,1759166673.972756,37.49346733093262,0.9608268737792969,0.13446807861328125,31.70943260192871,31.843900680541992,32.917022705078125,33.78033638000488
1759166674.0091662,1759166674.0128505,42.33264923095703,0.7307529449462891,0.13494491577148438,32.40323066711426,32.53817558288574,33.38623046875,34.230947494506836
1759166674.0516937,1759166674.0542202,38.07234764099121,0.041484832763671875,0.1366138458251953,32.66739845275879,32.804012298583984,33.04719924926758,34.082651138305664
1759166674.0908556,1759166674.0948105,39.36362266540527,0.055789947509765625,0.1361370086669922,32.81140327453613,32.947540283203125,33.19740295410156,34.384965896606445
1759166674.131542,1759166674.1355426,39.023637771606445,0.15282630920410156,0.13518333435058594,32.535552978515625,32.67073631286621,32.991647720336914,34.02352333068848
1759166674.1716642,1759166674.1765304,42.53435134887695,0.020742416381835938,0.13756752014160156,32.10163116455078,32.23919868469238,32.46116638183594,33.35094451904297
1759166674.2143364,1759166674.2156074,40.51709175109863,1.1410713195800781,0.13518333435058594,32.195329666137695,32.33051300048828,33.50520133972168,34.0571403503418
1759166674.2555766,1759166674.257303,35.7203483581543,0.01621246337890625,0.13756752014160156,31.79931640625,31.9368839263916,32.15289115905762,33.14638137817383
1759166674.2914386,1759166674.295586,29.633045196533203,1.9383430480957031,0.13566017150878906,21.013975143432617,21.149635314941406,23.123741149902344,24.01447296142578
1759166674.3221085,1759166674.3266935,34.128665924072266,0.2696514129638672,0.13828277587890625,26.519775390625,26.658058166503906,27.089595794677734,28.09286117553711
1759166674.3581061,1759166674.3593717,38.44571113586426,2.5391578674316406,0.13685226440429688,32.094478607177734,32.23133087158203,34.807443618774414,35.35580635070801
1759166674.3969233,1759166674.4019237,41.75281524658203,0.055789947509765625,0.1361370086669922,32.46760368347168,32.60374069213867,32.862186431884766,33.989906311035156
1759166674.4388123,1759166674.4422944,40.97247123718262,0.8449554443359375,0.13709068298339844,31.84652328491211,31.983613967895508,32.98544883728027,33.92767906188965
1759166674.4799294,1759166674.481569,41.78881645202637,1.9409656524658203,0.13589859008789062,32.19270706176758,32.32860565185547,34.38735008239746,35.04014015197754
1759166674.5230625,1759166674.5243256,36.29422187805176,0.02002716064453125,0.13685226440429688,31.886577606201172,32.02342987060547,32.25111961364746,32.97829627990723
1759166674.5595596,1759166674.5646083,43.05243492126465,0.02002716064453125,0.1385211944580078,32.51051902770996,32.64904022216797,32.86457061767578,33.73408317565918
1759166674.6027968,1759166674.6053288,40.88568687438965,0.015974044799804688,0.13494491577148438,36.047935485839844,36.18288040161133,36.39483451843262,37.35947608947754
1759166674.6438258,1759166674.649222,47.39880561828613,0.2307891845703125,0.14066696166992188,35.8884334564209,36.02910041809082,36.38148307800293,37.2622013092041
1759166674.6913655,1759166674.6926794,40.65752029418945,0.9405612945556641,0.13327598571777344,35.634517669677734,35.76779365539551,36.83042526245117,37.48202323913574
1759166674.7345173,1759166674.7368183,37.91069984436035,0.6308555603027344,0.1418590545654297,32.44328498840332,32.58514404296875,33.33282470703125,34.204959869384766
1759166674.773736,1759166674.7777092,39.1077995300293,0.055789947509765625,0.13709068298339844,32.58156776428223,32.718658447265625,32.979488372802734,34.10601615905762
1759166674.8142667,1759166674.8182137,39.44540023803711,0.133514404296875,0.1366138458251953,32.50885009765625,32.645463943481445,32.93657302856445,33.95867347717285
1759166674.856922,1759166674.858778,38.201332092285156,0.05054473876953125,0.13494491577148438,32.59539604187012,32.7303409576416,32.97781944274902,33.97727012634277
1759166674.8966086,1759166674.8978567,41.42618179321289,1.8763542175292969,0.1366138458251953,32.22966194152832,32.366275787353516,34.357309341430664,35.09068489074707
1759166674.9387364,1759166674.9403708,38.366079330444336,0.03814697265625,0.14328956604003906,32.444000244140625,32.587289810180664,32.820701599121094,33.65373611450195
1759166674.977234,1759166674.9809244,37.97483444213867,0.12803077697753906,0.13709068298339844,32.10330009460449,32.24039077758789,32.52577781677246,33.405303955078125
1759166675.0165737,1759166675.0178602,39.22605514526367,3.708362579345703,0.1366138458251953,32.04917907714844,32.18579292297363,35.935163497924805,36.498308181762695
1759166675.0559416,1759166675.0574188,43.604135513305664,4.634618759155273,0.13780593872070312,31.89373016357422,32.03153610229492,36.70334815979004,37.30440139770508
1759166675.0996828,1759166675.1009257,40.54760932922363,1.1234283447265625,0.13589859008789062,32.698869705200195,32.834768295288086,33.99538993835449,34.53373908996582
1759166675.1403632,1759166675.1416016,40.786027908325195,1.119375228881836,0.13780593872070312,32.5167179107666,32.654523849487305,33.814191818237305,34.378767013549805
1759166675.1812918,1759166675.182591,42.09327697753906,0.9565353393554688,0.1373291015625,35.51959991455078,35.65692901611328,36.73100471496582,37.390708923339844
1759166675.2235315,1759166675.227255,45.47524452209473,0.13256072998046875,0.1506805419921875,35.64333915710449,35.79401969909668,36.0872745513916,36.972999572753906
1759166675.2696717,1759166675.2712939,38.64693641662598,0.03790855407714844,0.13756752014160156,35.373687744140625,35.51125526428223,35.74943542480469,36.6823673248291
1759166675.3088424,1759166675.310154,42.226552963256836,5.094766616821289,0.1385211944580078,31.991004943847656,32.129526138305664,37.25695610046387,37.8115177154541
1759166675.352434,1759166675.3556767,41.34345054626465,0.018596649169921875,0.13828277587890625,32.12594985961914,32.26423263549805,32.480716705322266,33.28204154968262
1759166675.3944511,1759166675.396048,35.73322296142578,0.03743171691894531,0.1366138458251953,32.04536437988281,32.18197822570801,32.41753578186035,33.36143493652344
1759166675.4302793,1759166675.4316173,41.19062423706055,4.997968673706055,0.1347064971923828,32.1199893951416,32.254695892333984,37.28604316711426,37.84608840942383
1759166675.4733362,1759166675.476206,38.4368896484375,1.0578632354736328,0.13518333435058594,31.81934356689453,31.954526901245117,33.12969207763672,33.97703170776367
1759166675.5129492,1759166675.5169947,39.13736343383789,0.05555152893066406,0.13780593872070312,32.76801109313965,32.90581703186035,33.167123794555664,34.30962562561035
1759166675.5522308,1759166675.5570283,39.61300849914551,1.0063648223876953,0.13589859008789062,32.19032287597656,32.32622146606445,33.36501121520996,34.25407409667969
1759166675.5932796,1759166675.5983937,40.08650779724121,0.02002716064453125,0.1430511474609375,32.201528549194336,32.34457969665527,32.56583213806152,33.43343734741211
1759166675.6344297,1759166675.6379983,42.37246513366699,0.8189678192138672,0.14328956604003906,32.42373466491699,32.56702423095703,33.422231674194336,34.12127494812012
1759166675.676934,1759166675.6782036,40.75145721435547,1.1403560638427734,0.13828277587890625,32.4397087097168,32.5779914855957,33.75601768493652,34.30652618408203
1759166675.7178214,1759166675.7191257,37.40048408508301,1.0406970977783203,0.13637542724609375,32.47880935668945,32.61518478393555,33.77389907836914,34.43551063537598
1759166675.7555535,1759166675.7608354,40.54760932922363,0.021457672119140625,0.13875961303710938,32.96184539794922,33.10060501098633,33.32042694091797,34.212350845336914
1759166675.7964652,1759166675.8021436,41.28074645996094,0.01811981201171875,0.13875961303710938,32.55414962768555,32.692909240722656,32.91130065917969,34.012794494628906
1759166675.8378806,1759166675.8391368,39.48044776916504,4.157781600952148,0.13637542724609375,32.19294548034668,32.32932090759277,36.52024269104004,37.068843841552734
1759166675.877569,1759166675.8825402,40.71331024169922,1.5325546264648438,0.1456737518310547,31.880855560302734,32.02652931213379,33.722639083862305,34.5456600189209
1759166675.9198954,1759166675.9211676,39.37196731567383,2.9952526092529297,0.13756752014160156,32.47189521789551,32.60946273803711,35.64190864562988,36.18788719177246
1759166675.9594762,1759166675.9648814,39.548635482788086,0.05698204040527344,0.13828277587890625,31.63599967956543,31.774282455444336,32.030344009399414,33.45751762390137
1759166675.9991248,1759166676.004615,41.42284393310547,0.2651214599609375,0.13566017150878906,32.23729133605957,32.37295150756836,32.79709815979004,33.79535675048828
1759166676.040689,1759166676.0455894,39.15286064147949,0.021457672119140625,0.13828277587890625,32.03845024108887,32.17673301696777,32.39607810974121,33.28728675842285
1759166676.080178,1759166676.0849848,43.0448055267334,0.9920597076416016,0.141143798828125,32.18960762023926,32.33075141906738,33.356428146362305,34.24263000488281
1759166676.1233678,1759166676.1247337,41.48268699645996,1.7309188842773438,0.14400482177734375,32.24897384643555,32.39297866821289,34.24263000488281,34.92236137390137
1759166676.1649914,1759166676.166863,38.381099700927734,0.04935264587402344,0.13709068298339844,32.39011764526367,32.52720832824707,32.784461975097656,33.84757041931152
1759166676.2037036,1759166676.207638,40.14253616333008,0.015974044799804688,0.1366138458251953,31.995296478271484,32.13191032409668,32.34243392944336,33.20765495300293
1759166676.243986,1759166676.245247,39.142608642578125,2.813100814819336,0.13875961303710938,32.14859962463379,32.2873592376709,35.13646125793457,35.706281661987305
1759166676.2863324,1759166676.2879052,37.36448287963867,0.5030632019042969,0.14328956604003906,32.74178504943848,32.885074615478516,33.54907035827637,34.436941146850586
1759166676.325013,1759166676.3262832,39.80088233947754,2.9723644256591797,0.13756752014160156,32.67383575439453,32.81140327453613,35.82119941711426,36.374807357788086
1759166676.368026,1759166676.3699124,37.13345527648926,0.05245208740234375,0.13709068298339844,32.914161682128906,33.051252365112305,33.30850601196289,34.33537483215332
1759166676.4054923,1759166676.4110005,40.284156799316406,0.1270771026611328,0.1380443572998047,32.301902770996094,32.4399471282959,32.72843360900879,33.60629081726074
1759166676.4481206,1759166676.4517605,40.07411003112793,0.04029273986816406,0.13780593872070312,32.12785720825195,32.265663146972656,32.50479698181152,33.51473808288574
1759166676.4882884,1759166676.4923968,38.14697265625,0.14352798461914062,0.13780593872070312,31.922101974487305,32.05990791320801,32.3638916015625,33.541202545166016
1759166676.5268977,1759166676.5323956,40.688276290893555,0.14019012451171875,0.1373291015625,32.51791000366211,32.65523910522461,32.956838607788086,33.91695022583008
1759166676.5680282,1759166676.572977,40.78173637390137,0.1544952392578125,0.1366138458251953,32.46140480041504,32.598018646240234,32.9136848449707,33.965349197387695
1759166676.6090431,1759166676.6139126,40.2681827545166,0.02002716064453125,0.1361370086669922,32.10711479187012,32.24325180053711,32.463788986206055,33.3404541015625
1759166676.6494498,1759166676.6540663,40.86613655090332,0.13875961303710938,0.1380443572998047,33.91623497009277,34.05427932739258,34.41953659057617,35.54487228393555
1759166676.69197,1759166676.6933277,40.897369384765625,3.3969879150390625,0.1747608184814453,32.84168243408203,33.01644325256348,36.45062446594238,37.05739974975586
1759166676.732963,1759166676.7379751,39.30854797363281,0.0209808349609375,0.13566017150878906,31.831026077270508,31.966686248779297,32.18889236450195,33.07914733886719
1759166676.7747374,1759166676.7763522,41.465044021606445,1.9316673278808594,0.13828277587890625,31.90922737121582,32.04751014709473,34.09123420715332,34.751176834106445
1759166676.8168986,1759166676.8185277,39.279937744140625,0.03790855407714844,0.1347064971923828,32.14740753173828,32.282114028930664,32.51910209655762,33.40506553649902
1759166676.8563616,1759166676.8589432,44.095754623413086,0.041484832763671875,0.1373291015625,35.531044006347656,35.668373107910156,35.90512275695801,36.93580627441406
1759166676.9011657,1759166676.9029758,39.12615776062012,0.019073486328125,0.13875961303710938,35.39752960205078,35.53628921508789,35.74728965759277,36.54623031616211
1759166676.940643,1759166676.946296,45.354604721069336,0.5550384521484375,0.1385211944580078,35.36081314086914,35.49933433532715,36.22150421142578,37.059783935546875
1759166676.9860933,1759166676.9873743,42.59324073791504,3.4835338592529297,0.13756752014160156,32.485008239746094,32.622575759887695,36.23175621032715,36.89861297607422
1759166677.029132,1759166677.0314095,37.473440170288086,0.5581378936767578,0.13518333435058594,31.720876693725586,31.856060028076172,32.57560729980469,33.391475677490234
1759166677.0689352,1759166677.0715628,37.550926208496094,0.5388259887695312,0.13566017150878906,31.702518463134766,31.838178634643555,32.538414001464844,33.356666564941406
1759166677.1077287,1759166677.108991,43.03169250488281,3.0448436737060547,0.13780593872070312,32.61089324951172,32.74869918823242,35.834550857543945,36.41009330749512
1759166677.1514568,1759166677.1532104,35.8731746673584,0.016689300537109375,0.13637542724609375,31.05926513671875,31.195640563964844,31.422853469848633,32.41729736328125
1759166677.1874642,1759166677.1887412,41.442155838012695,4.080533981323242,0.1366138458251953,31.764507293701172,31.901121139526367,36.01574897766113,36.57054901123047
1759166677.2290165,1759166677.2329757,38.47455978393555,0.019073486328125,0.13566017150878906,31.820297241210938,31.955957412719727,32.17673301696777,33.3859920501709
1759166677.2687547,1759166677.2726662,39.05916213989258,0.2429485321044922,0.13327598571777344,32.67645835876465,32.80973434448242,33.16640853881836,34.09910202026367
1759166677.3079555,1759166677.3134649,41.09907150268555,0.5445480346679688,0.13971328735351562,32.00030326843262,32.14001655578613,32.84597396850586,33.63990783691406
1759166677.3491907,1759166677.350482,41.63384437561035,4.075527191162109,0.13947486877441406,31.924962997436523,32.06443786621094,36.180973052978516,36.771297454833984
1759166677.3926463,1759166677.3941095,36.515235900878906,0.8373260498046875,0.13828277587890625,31.965970993041992,32.1042537689209,33.059120178222656,33.97178649902344
1759166677.4293046,1759166677.434288,47.34945297241211,0.9717941284179688,0.13875961303710938,35.81571578979492,35.95447540283203,37.04428672790527,37.73355484008789
1759166677.4767883,1759166677.4780352,43.83587837219238,1.1262893676757812,0.1385211944580078,35.54797172546387,35.686492919921875,36.85355186462402,37.41168975830078
1759166677.520767,1759166677.522085,39.078712463378906,1.0251998901367188,0.1385211944580078,32.929182052612305,33.06770324707031,34.210920333862305,34.88922119140625
1759166677.5621748,1759166677.5637345,36.736249923706055,0.8401870727539062,0.13971328735351562,31.663179397583008,31.802892684936523,32.810211181640625,33.67924690246582
1759166677.6009328,1759166677.602175,40.33303260803223,2.0699501037597656,0.1361370086669922,32.81211853027344,32.94825553894043,35.05873680114746,35.61758995056152
1759166677.6423764,1759166677.6455078,37.81533241271973,0.019788742065429688,0.13828277587890625,31.8295955657959,31.967878341674805,32.19175338745117,33.36620330810547
1759166677.68296,1759166677.6853132,37.813425064086914,0.05555152893066406,0.14281272888183594,32.921552658081055,33.06436538696289,33.34808349609375,34.45768356323242
1759166677.7219975,1759166677.7262282,38.855552673339844,0.055789947509765625,0.13637542724609375,32.523155212402344,32.65953063964844,32.91821479797363,34.06572341918945
1759166677.7617683,1759166677.766985,39.09182548522949,0.1480579376220703,0.1392364501953125,32.114505767822266,32.25374221801758,32.568931579589844,33.52713584899902
1759166677.8010578,1759166677.805895,41.71562194824219,1.7673969268798828,0.13828277587890625,32.11474418640137,32.25302696228027,34.137725830078125,34.798622131347656
1759166677.8429124,1759166677.844196,39.97659683227539,4.090785980224609,0.13780593872070312,31.88180923461914,32.019615173339844,36.150455474853516,36.72075271606445
1759166677.8831222,1759166677.884424,40.24147987365723,3.9947032928466797,0.14066696166992188,32.282352447509766,32.42301940917969,36.455392837524414,37.000417709350586
1759166677.924513,1759166677.9281118,38.64717483520508,0.8072853088378906,0.13780593872070312,32.20772743225098,32.34553337097168,33.26916694641113,34.1029167175293
1759166677.9649048,1759166677.966191,39.49284553527832,3.1523704528808594,0.1399517059326172,32.25588798522949,32.39583969116211,35.58778762817383,36.14687919616699
1759166678.0068488,1759166678.0091019,37.77575492858887,0.6330013275146484,0.1373291015625,32.800912857055664,32.938241958618164,33.68735313415527,34.54089164733887
1759166678.0483344,1759166678.05098,38.480281829833984,0.02002716064453125,0.1380443572998047,32.3488712310791,32.486915588378906,32.70840644836426,33.541202545166016
1759166678.0869567,1759166678.0882246,39.502859115600586,3.665447235107422,0.13709068298339844,32.25541114807129,32.39250183105469,36.17453575134277,36.84592247009277
1759166678.1310482,1759166678.1323323,35.68530082702637,0.020503997802734375,0.1366138458251953,31.833410263061523,31.97002410888672,32.19461441040039,33.06770324707031
1759166678.168034,1759166678.1719725,40.11702537536621,0.1475811004638672,0.1380443572998047,32.67621994018555,32.81426429748535,33.11944007873535,34.21497344970703
1759166678.2091365,1759166678.212842,41.9766902923584,0.2532005310058594,0.1392364501953125,31.995058059692383,32.134294509887695,32.55200386047363,33.551931381225586
1759166678.2512558,1759166678.252534,36.997079849243164,1.0080337524414062,0.13875961303710938,32.02962875366211,32.16838836669922,33.29348564147949,33.9505672454834
1759166678.289499,1759166678.2933927,43.55287551879883,0.25081634521484375,0.13685226440429688,33.22744369506836,33.364295959472656,33.73885154724121,34.729957580566406
1759166678.3331935,1759166678.3350809,38.81382942199707,0.05125999450683594,0.14638900756835938,31.464815139770508,31.611204147338867,31.871318817138672,32.811880111694336
1759166678.372187,1759166678.3745735,37.09244728088379,0.056743621826171875,0.14209747314453125,32.47809410095215,32.62019157409668,32.86910057067871,34.08193588256836
1759166678.4096239,1759166678.4149954,40.37976264953613,0.22721290588378906,0.13780593872070312,32.40013122558594,32.53793716430664,32.87863731384277,33.814430236816406
1759166678.4523442,1759166678.4536421,41.852474212646484,2.3725032806396484,0.1373291015625,31.940698623657227,32.07802772521973,34.49058532714844,35.057783126831055
1759166678.4943354,1759166678.4967005,37.407875061035156,0.0209808349609375,0.1392364501953125,32.157182693481445,32.29641914367676,32.517194747924805,33.40339660644531
1759166678.5348969,1759166678.5368779,41.04137420654297,0.2675056457519531,0.1361370086669922,35.5067253112793,35.64286231994629,36.066293716430664,37.065982818603516
1759166678.5760753,1759166678.5809004,43.951988220214844,0.1304149627685547,0.13899803161621094,35.67624092102051,35.81523895263672,36.10968589782715,37.02569007873535
1759166678.620166,1759166678.624915,42.267560958862305,0.041484832763671875,0.14519691467285156,32.37175941467285,32.5169563293457,32.76371955871582,33.806562423706055
1759166678.6625886,1759166678.6639457,41.170358657836914,1.744985580444336,0.13780593872070312,32.13024139404297,32.26804733276367,34.12604331970215,34.776926040649414
1759166678.704174,1759166678.705454,40.067195892333984,0.8389949798583984,0.13589859008789062,31.951904296875,32.08780288696289,33.05411338806152,33.71906280517578
1759166678.7443817,1759166678.7456868,36.80109977722168,1.0218620300292969,0.1385211944580078,31.906843185424805,32.04536437988281,33.18285942077637,33.841848373413086
1759166678.7815166,1759166678.7867954,41.07022285461426,0.020265579223632812,0.1366138458251953,32.3338508605957,32.4704647064209,32.68790245056152,33.566951751708984
1759166678.8235703,1759166678.8275833,38.96474838256836,0.020742416381835938,0.1366138458251953,32.13667869567871,32.273292541503906,32.49192237854004,33.37454795837402
1759166678.8649719,1759166678.8672705,41.1829948425293,0.6527900695800781,0.13494491577148438,32.208919525146484,32.34386444091797,33.109426498413086,33.9818000793457
1759166678.9063404,1759166678.9085424,37.676095962524414,0.019311904907226562,0.13875961303710938,32.14383125305176,32.28259086608887,32.5007438659668,33.330678939819336
1759166678.9442506,1759166678.948228,38.866519927978516,1.1179447174072266,0.1366138458251953,31.885385513305664,32.02199935913086,33.30636024475098,34.12508964538574
1759166678.9847002,1759166678.9859688,41.12100601196289,3.742694854736328,0.1373291015625,31.96883201599121,32.10616111755371,35.88604927062988,36.44394874572754
1759166679.0261517,1759166679.0301337,39.62421417236328,0.02002716064453125,0.13828277587890625,31.841754913330078,31.980037689208984,32.20176696777344,33.1120491027832
1759166679.0680988,1759166679.0696683,37.16254234313965,0.6775856018066406,0.13875961303710938,32.36055374145508,32.49931335449219,33.33592414855957,34.22117233276367
1759166679.1064796,1759166679.1101391,42.57988929748535,0.8597373962402344,0.13780593872070312,33.33568572998047,33.47349166870117,34.37685966491699,35.05563735961914
1759166679.1491947,1759166679.152602,39.82281684875488,0.04220008850097656,0.1392364501953125,32.3176383972168,32.45687484741211,32.69648551940918,33.71095657348633
1759166679.1893494,1759166679.1934173,41.74637794494629,0.019550323486328125,0.14519691467285156,32.01484680175781,32.160043716430664,32.38201141357422,33.31398963928223
1759166679.2312343,1759166679.2337103,38.25736045837402,0.12683868408203125,0.13947486877441406,32.126426696777344,32.26590156555176,32.55105018615723,33.414363861083984
1759166679.2696373,1759166679.2738175,39.061784744262695,0.5137920379638672,0.13828277587890625,32.04965591430664,32.18793869018555,32.86242485046387,33.791303634643555
1759166679.3088405,1759166679.313331,42.214393615722656,1.1372566223144531,0.14328956604003906,32.45091438293457,32.59420394897461,33.77199172973633,34.334421157836914
1759166679.3514223,1759166679.3551729,38.015127182006836,0.041484832763671875,0.13899803161621094,31.9671630859375,32.10616111755371,32.35650062561035,33.2949161529541
1759166679.389594,1759166679.3944027,39.67928886413574,1.007080078125,0.14352798461914062,32.23252296447754,32.37605094909668,33.4165096282959,34.307241439819336
1759166679.4304512,1759166679.4357722,40.374755859375,0.1480579376220703,0.13780593872070312,32.63092041015625,32.76872634887695,33.0812931060791,33.94436836242676
1759166679.4716012,1759166679.4765158,40.21859169006348,0.15473365783691406,0.13399124145507812,32.21321105957031,32.34720230102539,32.66191482543945,33.71596336364746
1759166679.5119557,1759166679.5171182,41.40281677246094,0.1842975616455078,0.13780593872070312,31.855344772338867,31.99315071105957,32.34076499938965,33.43343734741211
1759166679.5544386,1759166679.5575876,38.01608085632324,0.019550323486328125,0.13899803161621094,31.932353973388672,32.07135200500488,32.29165077209473,33.14566612243652
1759166679.5956717,1759166679.5972545,38.05088996887207,0.690460205078125,0.1373291015625,32.5465202331543,32.6838493347168,33.530473709106445,34.39021110534668
1759166679.6338613,1759166679.638917,41.70870780944824,0.02002716064453125,0.13780593872070312,32.87458419799805,33.01239013671875,33.22887420654297,34.1033935546875
1759166679.6756666,1759166679.6769347,40.856361389160156,3.1545162200927734,0.1366138458251953,32.521724700927734,32.65833854675293,35.84933280944824,36.40866279602051
1759166679.7176182,1759166679.720884,40.25125503540039,0.12993812561035156,0.1366138458251953,32.05680847167969,32.19342231750488,32.48453140258789,33.35452079772949
1759166679.7580135,1759166679.759603,41.72348976135254,2.023935317993164,0.1399517059326172,32.07969665527344,32.219648361206055,34.36112403869629,35.01439094543457
1759166679.7998776,1759166679.8011856,40.544748306274414,1.0366439819335938,0.1354217529296875,32.02247619628906,32.15789794921875,33.315181732177734,34.00754928588867
1759166679.8406386,1759166679.8422275,36.830902099609375,0.5369186401367188,0.14066696166992188,32.02223777770996,32.16290473937988,32.86099433898926,33.74886512756348
1759166679.8787153,1759166679.8825796,39.04294967651367,0.2448558807373047,0.13589859008789062,32.523155212402344,32.659053802490234,33.02741050720215,34.01970863342285
1759166679.917888,1759166679.9227931,42.52982139587402,0.8487701416015625,0.1399517059326172,34.142255783081055,34.28220748901367,35.35318374633789,36.35549545288086
1759166679.960867,1759166679.9664176,41.01848602294922,0.1544952392578125,0.1468658447265625,32.302141189575195,32.44900703430176,32.769203186035156,33.69641304016113
1759166680.0022912,1759166680.0035713,38.99645805358887,3.896951675415039,0.1475811004638672,31.627655029296875,31.775236129760742,35.70985794067383,36.26704216003418
1759166680.0419269,1759166680.04643,40.386199951171875,1.0221004486083984,0.1430511474609375,32.14907646179199,32.29212760925293,33.35380554199219,34.24882888793945
1759166680.0843585,1759166680.0875328,39.86763954162598,0.055789947509765625,0.13685226440429688,32.46927261352539,32.60612487792969,32.85932540893555,33.936500549316406
1759166680.124367,1759166680.1285453,41.23520851135254,0.019550323486328125,0.1361370086669922,31.963825225830078,32.09996223449707,32.31525421142578,33.478498458862305
1759166680.1659033,1759166680.1688693,40.1763916015625,0.04124641418457031,0.1366138458251953,32.90867805480957,33.045291900634766,33.284902572631836,34.273624420166016
1759166680.2062178,1759166680.2095752,40.683746337890625,0.6318092346191406,0.14090538024902344,32.60326385498047,32.74416923522949,33.490657806396484,34.35945510864258
1759166680.249509,1759166680.2511072,36.04412078857422,0.03814697265625,0.13828277587890625,32.51385688781738,32.65213966369629,32.88865089416504,33.776283264160156
1759166680.2856963,1759166680.288512,42.1450138092041,3.728628158569336,0.13709068298339844,31.795501708984375,31.932592391967773,35.697221755981445,36.748647689819336
1759166680.3301437,1759166680.3316982,39.659976959228516,0.5035400390625,0.13566017150878906,32.138824462890625,32.274484634399414,32.94515609741211,33.81538391113281
1759166680.369987,1759166680.3724816,36.83018684387207,0.015974044799804688,0.14448165893554688,32.28116035461426,32.425642013549805,32.64164924621582,33.621788024902344
1759166680.4072676,1759166680.4122596,39.696455001831055,0.8368492126464844,0.13709068298339844,32.22918510437012,32.366275787353516,33.32662582397461,34.15107727050781
1759166680.4481416,1759166680.4535391,40.132999420166016,0.021219253540039062,0.13709068298339844,32.16886520385742,32.30595588684082,32.525062561035156,33.41245651245117
1759166680.4886553,1759166680.4936633,39.98255729675293,0.1513957977294922,0.13709068298339844,32.469749450683594,32.60684013366699,32.92083740234375,33.97655487060547
1759166680.530617,1759166680.5318668,38.69366645812988,2.835988998413086,0.13637542724609375,32.202720642089844,32.33909606933594,35.215139389038086,35.775184631347656
1759166680.5697534,1759166680.5748394,39.784908294677734,0.14734268188476562,0.13566017150878906,32.3491096496582,32.48476982116699,32.79852867126465,33.83302688598633
1759166680.6096833,1759166680.6141512,40.771484375,1.4467239379882812,0.1361370086669922,32.01580047607422,32.15193748474121,33.63609313964844,34.1801643371582
1759166680.653121,1759166680.6543624,39.28065299987793,1.1255741119384766,0.1404285430908203,32.70411491394043,32.84454345703125,34.01064872741699,34.57903861999512
1759166680.6925488,1759166680.6938148,41.89467430114746,2.7399063110351562,0.1404285430908203,32.69505500793457,32.83548355102539,35.613059997558594,36.168575286865234
1759166680.7353947,1759166680.7370157,37.31107711791992,0.5292892456054688,0.1366138458251953,32.85360336303711,32.990217208862305,33.681631088256836,34.55400466918945
1759166680.7773278,1759166680.778638,36.81612014770508,0.021457672119140625,0.1392364501953125,32.682180404663086,32.8214168548584,33.051490783691406,33.95843505859375
1759166680.814345,1759166680.8191998,39.86048698425293,0.1494884490966797,0.1385211944580078,32.59134292602539,32.7298641204834,33.04457664489746,34.1792106628418
1759166680.8555644,1759166680.86042,41.960716247558594,0.0209808349609375,0.14162063598632812,31.88776969909668,32.02939033508301,32.25564956665039,33.17832946777344
1759166680.8984847,1759166680.9000707,37.21117973327637,0.5135536193847656,0.14066696166992188,32.3491096496582,32.489776611328125,33.16378593444824,34.04998779296875
1759166680.9375515,1759166680.9403915,38.65408897399902,0.7417201995849609,0.1385211944580078,32.46951103210449,32.6080322265625,33.46824645996094,34.29770469665527
1759166680.9766307,1759166680.9814742,40.022850036621094,0.14448165893554688,0.1380443572998047,32.48143196105957,32.619476318359375,32.9279899597168,33.957481384277344
1759166681.0201662,1759166681.0220876,36.15093231201172,0.0514984130859375,0.1354217529296875,32.50694274902344,32.642364501953125,32.89389610290527,33.963918685913086
1759166681.056842,1759166681.062689,41.70036315917969,0.5443096160888672,0.13971328735351562,31.904220581054688,32.0439338684082,32.74822235107422,33.57672691345215
1759166681.0986843,1759166681.1034718,41.1226749420166,0.1456737518310547,0.13756752014160156,32.000064849853516,32.13763236999512,32.44423866271973,33.71834754943848
1759166681.139941,1759166681.1429443,40.59648513793945,0.8351802825927734,0.13589859008789062,32.479047775268555,32.614946365356445,33.57529640197754,34.40976142883301
1759166681.1823506,1759166681.1842697,37.16015815734863,0.24747848510742188,0.1373291015625,32.172441482543945,32.309770584106445,32.72223472595215,33.97226333618164
1759166681.2214596,1759166681.222742,41.47744178771973,2.0341873168945312,0.13685226440429688,32.62448310852051,32.761335372924805,34.83295440673828,35.38966178894043
1759166681.2636256,1759166681.2655475,43.192386627197266,0.053882598876953125,0.14019012451171875,35.773515701293945,35.913705825805664,36.171913146972656,37.131547927856445
1759166681.307005,1759166681.3095057,41.75972938537598,0.041484832763671875,0.1380443572998047,33.19120407104492,33.32924842834473,33.57648849487305,34.577131271362305
1759166681.348906,1759166681.350175,39.77560997009277,1.0094642639160156,0.1373291015625,35.26449203491211,35.40182113647461,36.52477264404297,37.171125411987305
1759166681.3891168,1759166681.3948102,39.873600006103516,0.018596649169921875,0.1380443572998047,32.030344009399414,32.16838836669922,32.39297866821289,33.51712226867676
1759166681.432707,1759166681.4353247,37.94074058532715,0.018835067749023438,0.14019012451171875,32.30738639831543,32.44757652282715,32.659292221069336,33.41937065124512
1759166681.4707441,1759166681.4754753,40.622711181640625,0.6804466247558594,0.13566017150878906,31.915664672851562,32.05132484436035,32.845258712768555,33.84900093078613
