Timestamp,ArrivalTime,TotalTime(ms),WaitTime(ms),DecodeTime(ms),InferTime(ms),ServerComputeTime(ms),TotalServer(ms),Total
1759167106.9557703,1759167106.9968827,1205.8870792388916,0.02765655517578125,5.699634552001953,1148.0262279510498,1153.7258625030518,1153.808832168579,1164.5305156707764
1759167108.1656213,1759167108.168919,89.27178382873535,0.019311904907226562,0.08630752563476562,84.23638343811035,84.32269096374512,84.38277244567871,84.98501777648926
1759167108.2556505,1759167108.2621274,106.99462890625,0.016450881958007812,0.07581710815429688,93.95980834960938,94.03562545776367,94.0866470336914,94.59233283996582
1759167108.3656442,1759167108.3671172,89.91646766662598,0.0152587890625,0.07534027099609375,78.09877395629883,78.17411422729492,78.21989059448242,78.6890983581543
1759167108.456593,1759167108.4659915,84.05089378356934,0.0152587890625,0.07200241088867188,70.6338882446289,70.70589065551758,70.75095176696777,71.20418548583984
1759167108.5408077,1759167108.546097,95.76654434204102,0.015020370483398438,0.0705718994140625,84.92159843444824,84.9921703338623,85.03985404968262,85.49976348876953
1759167108.6406434,1759167108.644091,94.53105926513672,0.014781951904296875,0.06890296936035156,79.18429374694824,79.2531967163086,79.29825782775879,79.74553108215332
1759167108.7353268,1759167108.7839143,159.60264205932617,0.03457069396972656,0.06651878356933594,102.65111923217773,102.71763801574707,102.80752182006836,103.63149642944336
1759167108.8995981,1759167108.9146013,136.70015335083008,40.02046585083008,0.06437301635742188,36.806344985961914,36.870718002319336,119.08221244812012,120.99552154541016
1759167109.0391092,1759167109.1303768,147.88079261779785,0.19884109497070312,0.06747245788574219,41.50223731994629,41.56970977783203,47.309160232543945,91.38989448547363
1759167109.1871483,1759167109.1960163,125.43821334838867,0.0152587890625,0.0705718994140625,111.74798011779785,111.81855201721191,111.89913749694824,112.41865158081055
1759167109.3127768,1759167109.3181822,117.1257495880127,0.015974044799804688,0.07414817810058594,97.56779670715332,97.6419448852539,97.69105911254883,98.18649291992188
1759167109.4345975,1759167109.43605,97.98979759216309,0.015497207641601562,0.07128715515136719,82.62062072753906,82.69190788269043,82.74030685424805,83.24027061462402
1759167109.5327427,1759167109.5341737,100.83150863647461,0.015020370483398438,0.07104873657226562,92.49067306518555,92.56172180175781,92.60964393615723,93.06454658508301
1759167109.6337295,1759167109.6401038,98.1450080871582,0.015735626220703125,0.07009506225585938,89.19692039489746,89.26701545715332,89.31803703308105,89.7817611694336
1759167109.7356396,1759167109.739088,82.9312801361084,0.0152587890625,0.06866455078125,70.99771499633789,71.06637954711914,71.11144065856934,71.5484619140625
1759167109.8187246,1759167109.8279948,78.3696174621582,0.015497207641601562,0.06866455078125,62.744855880737305,62.813520431518555,62.85977363586426,63.321590423583984
1759167109.8972394,1759167109.9017665,70.39284706115723,0.014781951904296875,0.06842613220214844,58.34555625915527,58.41398239135742,58.45785140991211,58.897972106933594
1759167109.96981,1759167109.9849985,86.8830680847168,0.015020370483398438,0.06961822509765625,63.73453140258789,63.80414962768555,63.85993957519531,64.3317699432373
1759167110.0568395,1759167110.094431,108.7946891784668,0.03743171691894531,0.07748603820800781,68.65501403808594,68.73250007629395,68.81046295166016,74.1887092590332
1759167110.1657944,1759167110.1803367,112.98298835754395,0.10943412780761719,0.08368492126464844,37.345170974731445,37.428855895996094,96.45223617553711,97.15533256530762
1759167110.2812495,1759167110.3491788,150.7863998413086,0.0362396240234375,0.06794929504394531,77.91757583618164,77.98552513122559,78.06181907653809,79.32472229003906
1759167110.432302,1759167110.4409752,83.26959609985352,0.0152587890625,0.06914138793945312,73.68206977844238,73.75121116638184,73.79937171936035,74.25141334533691
1759167110.5186374,1759167110.5239828,89.9972915649414,0.015735626220703125,0.06914138793945312,82.31949806213379,82.38863945007324,82.44442939758301,82.91077613830566
1759167110.6106358,1759167110.612042,71.95639610290527,0.01430511474609375,0.06890296936035156,66.97797775268555,67.0468807220459,67.09527969360352,67.53897666931152
1759167110.684637,1759167110.6891074,74.21422004699707,0.016689300537109375,0.07033348083496094,63.29607963562012,63.36641311645508,63.42935562133789,63.98177146911621
1759167110.760591,1759167110.7660775,81.2678337097168,0.0152587890625,0.06890296936035156,71.4871883392334,71.55609130859375,71.60639762878418,72.07179069519043
1759167110.8420062,1759167110.8470733,80.62553405761719,0.015497207641601562,0.06794929504394531,68.11308860778809,68.18103790283203,68.23587417602539,68.6957836151123
1759167110.9227834,1759167110.9274786,98.28877449035645,0.015497207641601562,1.134634017944336,85.92748641967773,87.06212043762207,87.11671829223633,87.6169204711914
1759167111.0212607,1759167111.0227869,59.59486961364746,0.015020370483398438,0.06985664367675781,51.227569580078125,51.29742622375488,51.357269287109375,51.88131332397461
1759167111.0810044,1759167111.086078,78.6285400390625,0.015735626220703125,0.06747245788574219,67.87753105163574,67.94500350952148,67.99936294555664,68.45760345458984
1759167111.159783,1759167111.1649907,78.92704010009766,0.0152587890625,0.07009506225585938,65.20843505859375,65.27853012084961,65.32692909240723,65.78302383422852
1759167111.2406344,1759167111.2450516,93.99795532226562,0.014543533325195312,0.06771087646484375,83.4503173828125,83.51802825927734,83.56213569641113,84.0001106262207
1759167111.3347816,1759167111.336187,66.24031066894531,0.014781951904296875,0.06866455078125,56.39505386352539,56.46371841430664,56.51116371154785,56.947946548461914
1759167111.4012866,1759167111.4080691,93.7352180480957,0.014781951904296875,0.06818771362304688,82.52763748168945,82.5958251953125,82.64350891113281,83.09698104858398
1759167111.4952855,1759167111.501619,65.55438041687012,0.015020370483398438,0.06842613220214844,53.614139556884766,53.682565689086914,53.7264347076416,54.163217544555664
1759167111.560988,1759167111.5623448,47.99604415893555,0.015020370483398438,0.06890296936035156,40.375709533691406,40.44461250305176,40.494680404663086,40.949106216430664
1759167111.6091127,1759167111.6259918,91.54725074768066,0.014781951904296875,0.07009506225585938,61.896562576293945,61.966657638549805,62.00981140136719,62.461137771606445
1759167111.700803,1759167111.706068,88.82784843444824,0.015020370483398438,0.06914138793945312,78.49526405334473,78.56440544128418,78.6142349243164,79.07319068908691
1759167111.789883,1759167111.7912965,101.00769996643066,0.014066696166992188,0.06818771362304688,94.56157684326172,94.62976455688477,94.7270393371582,95.33262252807617
1759167111.8945935,1759167111.8960214,94.0392017364502,0.014781951904296875,0.06794929504394531,79.18620109558105,79.254150390625,79.30564880371094,79.74886894226074
1759167111.9925928,1759167112.0002775,53.03144454956055,0.01621246337890625,0.07033348083496094,42.723655700683594,42.793989181518555,42.90437698364258,44.03281211853027
1759167112.0476365,1759167112.0520911,92.05389022827148,0.0152587890625,0.10895729064941406,82.25440979003906,82.36336708068848,82.42392539978027,82.90410041809082
1759167112.139884,1759167112.19167,191.68901443481445,0.13756752014160156,0.06699562072753906,62.99424171447754,63.06123733520508,128.493070602417,129.99200820922852
1759167112.3377256,1759167112.350361,148.33998680114746,0.024318695068359375,0.06914138793945312,61.39731407165527,61.46645545959473,61.686038970947266,124.71556663513184
1759167112.4861968,1759167112.4959378,76.43461227416992,0.015735626220703125,0.06794929504394531,62.62087821960449,62.68882751464844,62.75057792663574,63.44032287597656
1759167112.5627806,1759167112.5678458,95.08562088012695,0.017404556274414062,0.07104873657226562,87.07761764526367,87.14866638183594,87.20636367797852,88.75393867492676
1759167112.658015,1759167112.6598313,62.384605407714844,0.014066696166992188,0.06771087646484375,51.41496658325195,51.4826774597168,51.54132843017578,52.143096923828125
1759167112.7208323,1759167112.722223,86.20786666870117,0.01430511474609375,0.06818771362304688,79.24079895019531,79.30898666381836,79.35547828674316,79.79583740234375
1759167112.807186,1759167112.8086498,97.7332592010498,0.01430511474609375,0.06747245788574219,78.61328125,78.68075370788574,78.72486114501953,79.18977737426758
1759167112.9086761,1759167112.914987,101.89938545227051,0.014781951904296875,0.06818771362304688,80.13558387756348,80.20377159118652,80.25884628295898,80.71732521057129
1759167113.0125933,1759167113.0171227,93.2607650756836,0.015497207641601562,0.06937980651855469,80.18350601196289,80.25288581848145,80.30152320861816,80.76977729797363
1759167113.111607,1759167113.1130319,95.2906608581543,0.01621246337890625,0.06723403930664062,83.35494995117188,83.42218399047852,83.47749710083008,83.9242935180664
1759167113.2070403,1759167113.2211785,153.9461612701416,0.11467933654785156,0.07009506225585938,63.00497055053711,63.07506561279297,129.79960441589355,130.48171997070312
1759167113.3666577,1759167113.3733819,141.3412094116211,67.16132164001465,0.06270408630371094,60.65559387207031,60.71829795837402,128.01504135131836,128.82757186889648
1759167113.5081396,1759167113.524977,105.58199882507324,0.015020370483398438,0.06866455078125,77.8207778930664,77.88944244384766,77.9421329498291,78.38034629821777
1759167113.6138718,1759167113.6153305,96.76218032836914,0.014781951904296875,0.06794929504394531,91.57562255859375,91.6435718536377,91.68863296508789,92.14663505554199
1759167113.7107863,1759167113.712183,96.11034393310547,0.014543533325195312,0.06961822509765625,87.13221549987793,87.20183372497559,87.25261688232422,87.70608901977539
1759167113.8069983,1759167113.8131223,98.8912582397461,0.014781951904296875,0.06914138793945312,88.92083168029785,88.9899730682373,89.08438682556152,89.71071243286133
1759167113.9096355,1759167113.9140606,102.93793678283691,0.015020370483398438,0.06842613220214844,85.37054061889648,85.43896675109863,85.49094200134277,85.93249320983887
1759167114.014892,1759167114.0261555,150.0873565673828,0.025510787963867188,0.07033348083496094,65.28139114379883,65.35172462463379,65.56963920593262,127.93588638305664
1759167114.1658022,1759167114.1707323,31.070470809936523,0.018358230590820312,0.07605552673339844,21.229028701782227,21.305084228515625,21.46768569946289,22.645235061645508
1759167114.1970284,1759167114.2038236,55.733442306518555,0.016689300537109375,0.07891654968261719,41.867971420288086,41.9468879699707,42.00100898742676,42.50192642211914
1759167114.2529159,1759167114.2596736,52.947282791137695,0.018596649169921875,0.0782012939453125,43.3049201965332,43.383121490478516,43.44296455383301,44.12269592285156
1759167114.3076408,1759167114.3141892,36.67426109313965,0.01811981201171875,0.08177757263183594,27.753829956054688,27.835607528686523,27.895450592041016,28.41639518737793
1759167114.3477037,1759167114.3950815,154.86955642700195,47.08528518676758,0.06389617919921875,50.21405220031738,50.2779483795166,97.51081466674805,106.30583763122559
1759167114.5027266,1759167114.5230536,99.90572929382324,0.01811981201171875,0.07557868957519531,72.04031944274902,72.11589813232422,72.16954231262207,72.68929481506348
1759167114.6027822,1759167114.608093,77.67271995544434,0.015735626220703125,0.06914138793945312,57.98959732055664,58.058738708496094,58.110952377319336,58.569908142089844
1759167114.680667,1759167114.6893644,46.308279037475586,0.015497207641601562,0.06985664367675781,33.640146255493164,33.71000289916992,33.814191818237305,34.49869155883789
1759167114.730672,1759167114.7350876,94.22159194946289,0.015497207641601562,0.07152557373046875,78.48858833312988,78.56011390686035,78.6139965057373,79.08463478088379
1759167114.8325903,1759167114.8445356,154.01363372802734,0.024318695068359375,0.06937980651855469,68.76397132873535,68.8333511352539,69.05961036682129,138.49210739135742
1759167114.9915953,1759167115.0599406,162.03808784484863,0.03361701965332031,0.06699562072753906,79.54835891723633,79.61535453796387,79.69951629638672,80.4743766784668
1759167115.1538205,1759167115.1560898,97.81360626220703,0.0152587890625,0.06747245788574219,91.54200553894043,91.60947799682617,91.6604995727539,92.14663505554199
1759167115.2517405,1759167115.2531388,93.89257431030273,0.015735626220703125,0.06818771362304688,84.86461639404297,84.93280410766602,84.98024940490723,85.42203903198242
1759167115.345737,1759167115.3511446,94.67482566833496,0.014543533325195312,0.06937980651855469,88.37294578552246,88.44232559204102,88.48714828491211,88.91916275024414
1759167115.4436355,1759167115.4530623,104.99882698059082,0.0152587890625,0.06723403930664062,87.68939971923828,87.75663375854492,87.80264854431152,88.24276924133301
1759167115.548793,1759167115.554112,98.83975982666016,0.015497207641601562,0.07033348083496094,78.23824882507324,78.3085823059082,78.35555076599121,89.81657028198242
1759167115.6477823,1759167115.6530814,98.85001182556152,0.014543533325195312,0.06818771362304688,81.85982704162598,81.92801475524902,81.97903633117676,82.42440223693848
1759167115.7496352,1759167115.7510328,93.99867057800293,0.015020370483398438,0.06842613220214844,89.55121040344238,89.61963653564453,89.66994285583496,90.1193618774414
1759167115.843784,1759167115.845188,94.46978569030762,0.015020370483398438,0.06937980651855469,92.16761589050293,92.23699569702148,92.2856330871582,92.73076057434082
1759167115.938405,1759167115.93986,96.39620780944824,0.015497207641601562,0.06747245788574219,94.03228759765625,94.09976005554199,94.14958953857422,94.62428092956543
1759167116.035062,1759167116.0459738,101.79734230041504,0.014543533325195312,0.06818771362304688,87.02683448791504,87.09502220153809,87.14127540588379,87.57901191711426
1759167116.1370096,1759167116.1460938,110.5644702911377,0.0152587890625,0.06794929504394531,98.99163246154785,99.0595817565918,99.11751747131348,99.58696365356445
1759167116.2516408,1759167116.259072,92.31758117675781,0.015020370483398438,0.07343292236328125,80.75904846191406,80.83248138427734,80.87897300720215,81.3288688659668
1759167116.344107,1759167116.3526394,94.53082084655762,0.02288818359375,0.06794929504394531,82.93318748474121,83.00113677978516,83.05764198303223,90.55829048156738
1759167116.4387877,1759167116.4451191,98.8469123840332,0.014781951904296875,0.06747245788574219,89.00880813598633,89.07628059387207,89.12229537963867,89.55788612365723
1759167116.537784,1759167116.5430832,104.84981536865234,0.015020370483398438,0.06842613220214844,81.88724517822266,81.9556713104248,82.00526237487793,82.45635032653809
1759167116.6427832,1759167116.6441958,90.03186225891113,0.014781951904296875,0.06842613220214844,78.01389694213867,78.08232307434082,78.12762260437012,78.56416702270508
1759167116.7356365,1759167116.740976,97.2292423248291,0.015020370483398438,0.06699562072753906,77.17537879943848,77.24237442016602,77.28838920593262,77.7277946472168
1759167116.8346374,1759167116.83604,84.26547050476074,0.01430511474609375,0.06890296936035156,78.19914817810059,78.26805114746094,78.36294174194336,78.98545265197754
1759167116.9196312,1759167116.932065,82.99684524536133,0.015735626220703125,0.07224082946777344,64.48745727539062,64.5596981048584,64.66841697692871,65.29974937438965
1759167117.0035906,1759167117.0100875,101.3026237487793,0.014781951904296875,0.06914138793945312,87.46981620788574,87.5389575958252,87.59355545043945,88.05608749389648
1759167117.1051102,1759167117.1720357,132.81488418579102,0.091552734375,0.06127357482910156,60.889482498168945,60.95075607299805,61.10715866088867,124.54056739807129
1759167117.2465954,1759167117.259329,155.35664558410645,0.10967254638671875,0.08916854858398438,65.16218185424805,65.25135040283203,132.33590126037598,133.0130100250244
1759167117.406607,1759167117.4160051,76.09295845031738,0.016927719116210938,0.07200241088867188,58.388710021972656,58.46071243286133,58.52246284484863,60.30774116516113
1759167117.4886365,1759167117.508992,87.9971981048584,0.015497207641601562,0.06818771362304688,63.46249580383301,63.530683517456055,63.58933448791504,64.05520439147949
1759167117.5767853,1759167117.5835135,80.59048652648926,0.016450881958007812,0.07009506225585938,63.51327896118164,63.5833740234375,63.67373466491699,64.1639232635498
1759167117.6576498,1759167117.6722956,152.92811393737793,0.10848045349121094,0.06914138793945312,59.435129165649414,59.50427055358887,122.94173240661621,123.61860275268555
1759167117.8146114,1759167117.819643,118.47472190856934,47.95432090759277,0.06270408630371094,58.43305587768555,58.49575996398926,106.74285888671875,108.6270809173584
1759167117.9332402,1759167117.9402583,64.21828269958496,0.015974044799804688,0.09083747863769531,46.58031463623047,46.671152114868164,46.72360420227051,47.209739685058594
1759167117.9976385,1759167118.0021105,72.99542427062988,0.01430511474609375,0.08416175842285156,64.53657150268555,64.6207332611084,64.66794013977051,65.14811515808105
1759167118.070785,1759167118.0761316,63.89188766479492,0.015020370483398438,0.06985664367675781,52.529335021972656,52.599191665649414,52.65092849731445,53.09319496154785
1759167118.134822,1759167118.1401155,56.75196647644043,0.0152587890625,0.06818771362304688,47.82366752624512,47.891855239868164,47.9433536529541,48.39062690734863
1759167118.1917274,1759167118.1980913,74.79500770568848,0.015020370483398438,0.07081031799316406,67.49653816223145,67.56734848022461,67.62433052062988,68.10355186462402
1759167118.2666657,1759167118.2710605,71.99692726135254,0.01430511474609375,0.07343292236328125,57.91902542114258,57.99245834350586,58.03632736206055,58.55107307434082
1759167118.338809,1759167118.3401897,72.10111618041992,0.014543533325195312,0.06866455078125,61.66362762451172,61.73229217529297,61.83958053588867,62.47568130493164
1759167118.4127529,1759167118.418619,75.97208023071289,0.015735626220703125,0.06961822509765625,58.8841438293457,58.95376205444336,59.0062141418457,59.456825256347656
1759167118.4906366,1759167118.4951284,87.09597587585449,0.015020370483398438,0.06961822509765625,79.00619506835938,79.07581329345703,79.12087440490723,79.55026626586914
1759167118.577877,1759167118.5815504,47.336578369140625,0.015497207641601562,0.06699562072753906,40.9388542175293,41.005849838256836,41.055917739868164,41.49818420410156
1759167118.6290026,1759167118.6479902,88.68193626403809,0.014781951904296875,0.06985664367675781,61.80286407470703,61.87272071838379,61.92350387573242,62.3784065246582
1759167118.7178302,1759167118.725254,98.02746772766113,0.015974044799804688,0.07009506225585938,66.9410228729248,67.01111793518066,67.06714630126953,67.54136085510254
1759167118.8160064,1759167118.8173974,91.84551239013672,0.014781951904296875,0.07009506225585938,79.96153831481934,80.0316333770752,80.08122444152832,84.75351333618164
1759167118.912593,1759167118.919266,119.25458908081055,66.68305397033691,0.06318092346191406,38.709163665771484,38.7723445892334,105.58605194091797,109.84373092651367
1759167119.038097,1759167119.0453887,95.60918807983398,41.49222373962402,0.06222724914550781,31.097888946533203,31.16011619567871,72.77512550354004,73.52471351623535
1759167119.133854,1759167119.1978102,111.36817932128906,0.03457069396972656,0.10848045349121094,38.35558891296387,38.46406936645508,38.54966163635254,47.338247299194336
1759167119.2465968,1759167119.2510667,68.47524642944336,0.014781951904296875,0.06961822509765625,63.089847564697266,63.15946578979492,63.21549415588379,63.674211502075195
1759167119.3152168,1759167119.323977,65.4606819152832,0.014543533325195312,0.06771087646484375,47.07479476928711,47.14250564575195,47.188758850097656,47.636985778808594
1759167119.3808234,1759167119.3879728,79.19836044311523,0.014781951904296875,0.06818771362304688,67.9314136505127,67.99960136413574,68.04347038269043,68.47882270812988
1759167119.4616337,1759167119.4661744,105.26609420776367,0.016450881958007812,0.06628036499023438,85.22891998291016,85.29520034790039,85.35313606262207,85.88862419128418
1759167119.5671158,1759167119.5726676,80.78217506408691,0.0152587890625,0.06818771362304688,68.99666786193848,69.06485557556152,69.10943984985352,69.56124305725098
1759167119.6480453,1759167119.6533911,136.3229751586914,61.59067153930664,0.06580352783203125,59.841156005859375,59.906959533691406,121.63066864013672,129.0585994720459
1759167119.785259,1759167119.7980068,61.59257888793945,0.016927719116210938,0.07128715515136719,45.334815979003906,45.40610313415527,45.5174446105957,46.21100425720215
1759167119.8470001,1759167119.8520455,74.52058792114258,0.014543533325195312,0.06818771362304688,65.48357009887695,65.5517578125,65.60397148132324,66.04886054992676
1759167119.9216642,1759167119.932163,83.86540412902832,0.0152587890625,0.06842613220214844,64.85104560852051,64.91947174072266,71.38943672180176,71.83289527893066
1759167120.0066361,1759167120.008148,88.12475204467773,0.014781951904296875,0.06699562072753906,81.77638053894043,81.84337615966797,81.90560340881348,82.41152763366699
1759167120.100593,1759167120.1097877,150.70223808288574,65.98806381225586,0.060558319091796875,65.6437873840332,65.704345703125,131.83331489562988,132.65538215637207
1759167120.2595947,1759167120.2759933,106.04071617126465,0.014543533325195312,0.0667572021484375,83.21809768676758,83.28485488891602,83.33468437194824,83.8015079498291
1759167120.3657842,1759167120.3681204,70.4965591430664,0.017404556274414062,0.06866455078125,62.15262413024902,62.22128868103027,62.28375434875488,63.03811073303223
1759167120.4376357,1759167120.4430652,75.99878311157227,0.014781951904296875,0.06914138793945312,64.07022476196289,64.13936614990234,64.18657302856445,64.63384628295898
1759167120.5137818,1759167120.520669,62.84737586975098,0.014543533325195312,0.06866455078125,47.70493507385254,47.77359962463379,47.82605171203613,48.28286170959473
1759167120.5767808,1759167120.582074,86.24005317687988,0.015497207641601562,0.06842613220214844,76.61795616149902,76.68638229370117,76.74145698547363,77.19898223876953
1759167120.6631653,1759167120.6706543,104.46906089782715,0.021696090698242188,0.06723403930664062,89.32185173034668,89.38908576965332,89.4474983215332,95.95012664794922
1759167120.767785,1759167120.7731006,89.78748321533203,0.0152587890625,0.06771087646484375,82.60369300842285,82.6714038848877,82.71670341491699,83.15372467041016
1759167120.8577275,1759167120.8650472,95.3834056854248,0.015020370483398438,0.06818771362304688,87.11719512939453,87.18538284301758,87.24236488342285,87.71300315856934
1759167120.955636,1759167120.957108,98.9377498626709,0.015020370483398438,0.07009506225585938,89.50924873352051,89.57934379577637,89.62750434875488,90.1031494140625
1759167121.0547261,1759167121.0601,82.44609832763672,0.01430511474609375,0.07224082946777344,75.21224021911621,75.28448104858398,75.33025741577148,75.77300071716309
1759167121.1373422,1759167121.1449862,90.29197692871094,0.014781951904296875,0.07104873657226562,79.1172981262207,79.18834686279297,79.24389839172363,79.70356941223145
1759167121.2277846,1759167121.2330916,93.24049949645996,0.0152587890625,0.07104873657226562,83.72378349304199,83.79483222961426,83.84037017822266,84.28406715393066
1759167121.3211713,1759167121.3256428,100.4636287689209,0.023365020751953125,0.06985664367675781,89.79463577270508,89.86449241638184,89.935302734375,93.42670440673828
1759167121.4256368,1759167121.4290996,102.25772857666016,0.014543533325195312,0.07009506225585938,91.39418601989746,91.46428108215332,91.51339530944824,91.96639060974121
1759167121.5280418,1759167121.5300946,93.59073638916016,0.014781951904296875,0.06985664367675781,89.18118476867676,89.25104141235352,89.29657936096191,89.74361419677734
1759167121.6256356,1759167121.6291056,99.99704360961914,0.014543533325195312,0.07033348083496094,93.20211410522461,93.27244758605957,93.31679344177246,93.75739097595215
1759167121.7257822,1759167121.7271855,100.76093673706055,0.01430511474609375,0.07009506225585938,88.75441551208496,88.82451057434082,88.87314796447754,89.32352066040039
1759167121.8267033,1759167121.8330936,83.88137817382812,0.014781951904296875,0.06937980651855469,71.92754745483398,71.99692726135254,72.04198837280273,72.48234748840332
1759167121.9107363,1759167121.915055,68.83931159973145,0.015020370483398438,0.06818771362304688,58.29429626464844,58.362483978271484,58.41541290283203,58.87246131896973
1759167121.9816332,1759167121.988095,70.0995922088623,0.01430511474609375,0.06842613220214844,57.57427215576172,57.64269828796387,57.686567306518555,58.124542236328125
1759167122.051878,1759167122.0573137,100.69704055786133,0.014781951904296875,0.06651878356933594,84.85198020935059,84.91849899291992,84.96904373168945,85.4177474975586
1759167122.1527245,1759167122.1664069,80.85012435913086,0.0152587890625,0.07033348083496094,64.60428237915039,64.67461585998535,64.72539901733398,65.17887115478516
1759167122.2336807,1759167122.259991,112.17546463012695,0.015735626220703125,0.06866455078125,80.61742782592773,80.68609237670898,80.73091506958008,81.17890357971191
1759167122.3596106,1759167122.3685052,145.02191543579102,63.49587440490723,0.06413459777832031,65.3529167175293,65.41705131530762,129.05430793762207,129.85801696777344
1759167122.5082247,1759167122.5203574,109.41219329833984,0.016927719116210938,0.07128715515136719,42.36555099487305,42.436838150024414,42.5572395324707,43.596744537353516
1759167122.61974,1759167122.626436,98.87456893920898,39.36409950256348,0.06270408630371094,43.70236396789551,43.76506805419922,83.25695991516113,84.08880233764648
1759167122.7225933,1759167122.7357652,140.61355590820312,47.907114028930664,0.0629425048828125,36.231279373168945,36.29422187805176,125.95081329345703,127.10142135620117
1759167122.871646,1759167122.8879814,81.98761940002441,0.014066696166992188,0.06866455078125,62.87360191345215,62.9422664642334,62.99591064453125,63.44485282897949
1759167122.953783,1759167122.960978,75.09660720825195,0.014543533325195312,0.06961822509765625,62.99448013305664,63.0640983581543,63.11774253845215,63.570499420166016
1759167123.0386858,1759167123.0857532,193.69029998779297,71.18892669677734,0.06198883056640625,70.36018371582031,70.42217254638672,141.76416397094727,142.9154872894287
1759167123.2394118,1759167123.2903914,119.4620132446289,0.03695487976074219,0.06723403930664062,65.24896621704102,65.31620025634766,65.39607048034668,69.08535957336426
1759167123.3590264,1759167123.3651114,52.390098571777344,0.0152587890625,0.07200241088867188,45.404911041259766,45.47691345214844,45.53031921386719,46.012163162231445
1759167123.412636,1759167123.4206784,72.05843925476074,0.015735626220703125,0.06866455078125,61.287879943847656,61.356544494628906,61.405181884765625,61.8741512298584
1759167123.4895935,1759167123.4977617,48.33340644836426,0.016927719116210938,0.07152557373046875,36.588191986083984,36.65971755981445,36.771297454833984,37.53376007080078
1759167123.5380707,1759167123.5476608,104.56418991088867,0.020742416381835938,0.06914138793945312,91.41874313354492,91.48788452148438,91.54248237609863,92.22245216369629
1759167123.642783,1759167123.645732,85.10756492614746,0.017881393432617188,0.06699562072753906,74.96428489685059,75.03128051757812,75.09446144104004,76.17378234863281
1759167123.7280378,1759167123.7441113,107.05685615539551,0.0152587890625,0.06747245788574219,90.04449844360352,90.11197090148926,90.1641845703125,90.64579010009766
1759167123.8376377,1759167123.8464215,115.25273323059082,0.014543533325195312,4.165410995483398,96.6939926147461,100.85940361022949,100.96621513366699,101.69672966003418
1759167123.956637,1759167123.9729733,114.93515968322754,0.015735626220703125,0.06651878356933594,79.35619354248047,79.4227123260498,79.47874069213867,89.9667739868164
1759167124.076594,1759167124.078016,103.97982597351074,0.0152587890625,0.06866455078125,83.2371711730957,83.30583572387695,83.35614204406738,83.79721641540527
1759167124.1807272,1759167124.1821353,101.92012786865234,0.014781951904296875,0.06937980651855469,91.10069274902344,91.17007255554199,91.22276306152344,91.7050838470459
1759167124.2828076,1759167124.2881448,101.82523727416992,0.015735626220703125,0.07081031799316406,83.86635780334473,83.93716812133789,84.03205871582031,84.6710205078125
1759167124.384741,1759167124.3912225,100.20589828491211,0.014781951904296875,0.07557868957519531,90.6667709350586,90.74234962463379,90.79790115356445,91.27354621887207
1759167124.4866393,1759167124.4940908,103.99556159973145,0.0152587890625,0.07009506225585938,86.98821067810059,87.05830574035645,87.10455894470215,87.54563331604004
1759167124.590786,1759167124.5949962,104.85148429870605,0.015020370483398438,0.06842613220214844,98.66070747375488,98.72913360595703,98.77920150756836,99.23052787780762
1759167124.695844,1759167124.7048988,104.73108291625977,0.015735626220703125,0.06890296936035156,83.24575424194336,83.31465721130371,83.36305618286133,83.8160514831543
1759167124.800727,1759167124.876419,172.90711402893066,0.03409385681152344,0.07295608520507812,93.14823150634766,93.22118759155273,93.3084487915039,94.1312313079834
1759167124.9737384,1759167124.975283,98.31023216247559,0.014543533325195312,0.06914138793945312,89.46704864501953,89.53619003295898,89.59770202636719,90.09861946105957
1759167125.0723166,1759167125.080514,103.54304313659668,0.015020370483398438,0.0705718994140625,81.4521312713623,81.52270317077637,81.56895637512207,82.01479911804199
1759167125.1796484,1759167125.1842256,86.1973762512207,0.015497207641601562,0.06794929504394531,76.77531242370605,76.84326171875,76.94077491760254,77.55804061889648
1759167125.268637,1759167125.27501,106.39071464538574,0.015020370483398438,0.06937980651855469,94.5444107055664,94.61379051208496,94.66814994812012,95.13640403747559
1759167125.3751807,1759167125.379064,105.71599006652832,0.015020370483398438,0.06937980651855469,94.76947784423828,94.83885765075684,94.9258804321289,95.43752670288086
1759167125.4810464,1759167125.48828,102.58650779724121,0.01811981201171875,0.09655952453613281,91.37821197509766,91.47477149963379,91.52603149414062,92.01598167419434
1759167125.5837376,1759167125.5990632,113.41333389282227,0.018596649169921875,0.07200241088867188,90.5919075012207,90.66390991210938,90.72303771972656,93.16396713256836
1759167125.6973073,1759167125.7021494,95.73197364807129,0.015497207641601562,0.06890296936035156,82.04030990600586,82.10921287536621,82.15618133544922,82.59987831115723
1759167125.794783,1759167125.800073,97.85246849060059,0.015497207641601562,0.06771087646484375,82.40818977355957,82.47590065002441,82.52453804016113,82.96585083007812
1759167125.8930156,1759167125.8961058,83.55832099914551,0.0152587890625,0.06699562072753906,70.20306587219238,70.27006149291992,70.31631469726562,78.78494262695312
1759167125.9806356,1759167125.9841475,74.99575614929199,0.015735626220703125,0.07009506225585938,68.04084777832031,68.11094284057617,68.16601753234863,68.6347484588623
1759167126.0557814,1759167126.0620062,82.85093307495117,0.014543533325195312,0.0705718994140625,65.34695625305176,65.41752815246582,65.46998023986816,73.95410537719727
1759167126.1387804,1759167126.1440587,85.24346351623535,0.015020370483398438,0.06723403930664062,75.4859447479248,75.55317878723145,75.60849189758301,76.06339454650879
1759167126.225636,1759167126.232065,84.22374725341797,0.014543533325195312,0.06818771362304688,73.49872589111328,73.56691360473633,73.61245155334473,74.05328750610352
1759167126.3100083,1759167126.3150718,88.5629653930664,0.015020370483398438,0.06842613220214844,72.89814949035645,72.9665756225586,73.02165031433105,73.48418235778809
1759167126.39873,1759167126.4004712,104.8436164855957,0.015020370483398438,0.08082389831542969,96.07362747192383,96.15445137023926,96.24862670898438,96.78792953491211
1759167126.5037258,1759167126.5085602,100.84819793701172,0.020265579223632812,0.0972747802734375,89.07175064086914,89.16902542114258,89.22290802001953,89.76244926452637
1759167126.6047237,1759167126.6101596,102.91099548339844,0.014781951904296875,0.07319450378417969,85.6010913848877,85.67428588867188,85.73603630065918,86.33804321289062
1759167126.7077367,1759167126.7091265,93.31488609313965,0.015020370483398438,0.06890296936035156,84.82480049133301,84.89370346069336,84.93995666503906,85.38174629211426
1759167126.8045332,1759167126.816822,88.35649490356445,0.014781951904296875,0.06985664367675781,64.23401832580566,64.30387496948242,64.41354751586914,76.67136192321777
1759167126.8930402,1759167126.8980653,96.53472900390625,0.015497207641601562,0.06866455078125,84.27548408508301,84.34414863586426,84.39898490905762,84.86151695251465
1759167126.989727,1759167127.001206,103.2555103302002,0.11301040649414062,0.06890296936035156,40.63057899475098,40.69948196411133,83.74476432800293,84.44619178771973
1759167127.0931075,1759167127.1052191,78.92417907714844,0.015497207641601562,0.07200241088867188,61.70463562011719,61.77663803100586,61.833858489990234,62.3323917388916
1759167127.176521,1759167127.1845183,102.15187072753906,0.02765655517578125,0.06866455078125,39.92104530334473,39.98970985412598,40.24791717529297,91.2778377532959
1759167127.2826357,1759167127.2913442,106.93764686584473,0.11277198791503906,0.07772445678710938,49.117088317871094,49.1948127746582,89.99752998352051,90.72184562683105
1759167127.3897233,1759167127.3983037,95.07966041564941,0.118255615234375,0.07128715515136719,30.937910079956055,31.009197235107422,82.41438865661621,83.08577537536621
1759167127.4849293,1759167127.5020146,98.70338439941406,0.015497207641601562,0.07128715515136719,74.32055473327637,74.39184188842773,74.44596290588379,74.92756843566895
1759167127.583798,1759167127.5852246,80.83510398864746,0.0152587890625,0.06937980651855469,70.26076316833496,70.33014297485352,70.37544250488281,70.82295417785645
1759167127.665212,1759167127.6770198,119.33565139770508,0.110626220703125,0.07009506225585938,43.329477310180664,43.39957237243652,96.79913520812988,97.48244285583496
1759167127.786633,1759167127.7914076,139.9979591369629,68.38178634643555,0.06318092346191406,53.080081939697266,53.14326286315918,121.6576099395752,130.6920051574707
1759167127.9268327,1759167127.936109,101.0286808013916,0.016689300537109375,0.06890296936035156,85.6773853302002,85.74628829956055,85.80422401428223,86.38215065002441
1759167128.0316362,1759167128.0332303,104.95519638061523,0.015497207641601562,0.06866455078125,92.5452709197998,92.61393547058105,92.67783164978027,93.19281578063965
1759167128.1368477,1759167128.1453648,90.41929244995117,0.014543533325195312,0.06961822509765625,81.00700378417969,81.07662200927734,81.12668991088867,81.58493041992188
1759167128.2274141,1759167128.2288568,96.1601734161377,0.014781951904296875,0.07033348083496094,88.61041069030762,88.68074417114258,88.7291431427002,89.21289443969727
1759167128.3256361,1759167128.3270338,82.99684524536133,0.015497207641601562,0.06985664367675781,70.27959823608398,70.34945487976074,70.39499282836914,77.86178588867188
1759167128.4087834,1759167128.412217,76.23171806335449,0.015020370483398438,0.07200241088867188,68.33982467651367,68.41182708740234,68.4671401977539,68.93062591552734
1759167128.4851606,1759167128.4865897,98.47235679626465,0.015020370483398438,0.07081031799316406,89.80345726013184,89.874267578125,89.92767333984375,90.39306640625
1759167128.5837836,1759167128.5851762,97.37348556518555,0.014781951904296875,0.06961822509765625,82.07488059997559,82.14449882507324,82.18979835510254,82.62348175048828
1759167128.681309,1759167128.682728,94.93827819824219,0.014543533325195312,0.07033348083496094,92.62728691101074,92.6976203918457,92.7431583404541,93.18995475769043
1759167128.7763937,1759167128.777839,104.24208641052246,0.014543533325195312,0.07104873657226562,98.94299507141113,99.0140438079834,99.06363487243652,99.54595565795898
1759167128.8807867,1759167128.8821824,98.8471508026123,0.014781951904296875,0.07128715515136719,93.53137016296387,93.60265731811523,93.64748001098633,94.08736228942871
1759167128.9797857,1759167128.9901192,99.84827041625977,0.014543533325195312,0.06985664367675781,85.92534065246582,85.99519729614258,86.04168891906738,86.49063110351562
1759167129.079784,1759167129.0860887,83.14657211303711,0.01430511474609375,0.07104873657226562,72.75676727294922,72.82781600952148,72.87764549255371,73.33564758300781
1759167129.1666021,1759167129.1681046,70.97482681274414,0.015974044799804688,0.07414817810058594,65.19246101379395,65.26660919189453,65.3219223022461,65.8116340637207
1759167129.2377372,1759167129.3147926,176.15437507629395,0.03910064697265625,0.08082389831542969,85.38269996643066,85.4635238647461,85.55483818054199,102.10800170898438
1759167129.4156241,1759167129.4270217,109.46083068847656,0.016450881958007812,0.0762939453125,97.04113006591797,97.11742401123047,97.16796875,97.65434265136719
1759167129.5276382,1759167129.5348754,103.09290885925293,0.015974044799804688,0.09274482727050781,85.31928062438965,85.41202545166016,85.46566963195801,86.08746528625488
1759167129.6308792,1759167129.6323524,94.14386749267578,0.015735626220703125,0.07081031799316406,88.68694305419922,88.75775337219238,88.80496025085449,89.27726745605469
1759167129.7276392,1759167129.736,100.99554061889648,0.014781951904296875,0.06914138793945312,87.74471282958984,87.8138542175293,87.8598690032959,88.3171558380127
1759167129.828786,1759167129.834087,102.22959518432617,0.014543533325195312,0.06866455078125,89.38741683959961,89.45608139038086,89.50471878051758,89.95890617370605
1759167129.9312277,1759167129.9326448,85.40582656860352,0.014781951904296875,0.07414817810058594,77.88276672363281,77.9569149017334,78.0019760131836,78.44829559326172
1759167130.0167844,1759167130.0200832,78.24540138244629,0.014543533325195312,0.06794929504394531,67.26932525634766,67.3372745513916,67.38615036010742,67.84296035766602
1759167130.097638,1759167130.1059766,91.05467796325684,0.01430511474609375,0.07486343383789062,76.67970657348633,76.75457000732422,76.80130004882812,77.24285125732422
1759167130.1888397,1759167130.1940553,86.01951599121094,0.015020370483398438,0.06890296936035156,76.89428329467773,76.96318626403809,77.00800895690918,77.44598388671875
1759167130.2750115,1759167130.2786689,99.88713264465332,0.014543533325195312,0.06771087646484375,84.70702171325684,84.77473258972168,92.88907051086426,93.5213565826416
1759167130.3783143,1759167130.3830705,87.29696273803711,0.014543533325195312,0.07605552673339844,75.83880424499512,75.91485977172852,75.96755027770996,76.42650604248047
1759167130.472594,1759167130.479718,99.03645515441895,0.014543533325195312,0.07486343383789062,81.64334297180176,81.71820640563965,81.76565170288086,82.23295211791992
1759167130.5717778,1759167130.573135,85.91794967651367,0.014781951904296875,0.06866455078125,83.15372467041016,83.2223892211914,83.32252502441406,84.01179313659668
1759167130.657797,1759167130.6683767,106.15754127502441,0.015020370483398438,0.06985664367675781,94.66743469238281,94.73729133605957,94.79236602783203,95.25418281555176
1759167130.7666383,1759167130.7711215,104.25662994384766,0.0152587890625,0.06866455078125,93.16754341125488,93.23620796203613,93.32704544067383,93.98937225341797
1759167130.8726375,1759167130.8771133,80.94501495361328,0.014543533325195312,0.07081031799316406,74.17082786560059,74.24163818359375,74.29027557373047,74.72991943359375
1759167130.9538789,1759167131.0009916,176.74899101257324,63.09390068054199,0.06580352783203125,59.19313430786133,59.25893783569336,122.4985122680664,128.04889678955078
1759167131.1346376,1759167131.2013478,159.99746322631836,0.036716461181640625,0.07367134094238281,89.60247039794922,89.6761417388916,89.75505828857422,95.03746032714844
1759167131.2947426,1759167131.303491,109.11774635314941,0.02384185791015625,0.07009506225585938,93.58429908752441,93.65439414978027,93.71590614318848,98.91033172607422
1759167131.4058337,1759167131.4072807,94.19965744018555,0.015497207641601562,0.06866455078125,84.27309989929199,84.34176445007324,84.44023132324219,85.05463600158691
1759167131.500162,1759167131.5115337,151.749849319458,65.13285636901855,0.06699562072753906,68.00508499145508,68.07208061218262,133.34298133850098,137.65597343444824
1759167131.6556375,1759167131.7118576,107.21206665039062,0.037670135498046875,0.06961822509765625,47.3935604095459,47.463178634643555,47.598838806152344,52.25348472595215
1759167131.7687228,1759167131.774997,97.18894958496094,0.015974044799804688,0.06771087646484375,83.1305980682373,83.19830894470215,83.2524299621582,83.71710777282715
1759167131.8746357,1759167131.8861053,130.85126876831055,38.640499114990234,0.07009506225585938,36.170244216918945,36.240339279174805,116.07241630554199,117.05732345581055
1759167132.0120552,1759167132.0302653,157.9756736755371,63.02380561828613,0.06508827209472656,70.81913948059082,70.88422775268555,134.03820991516113,134.88268852233887
1759167132.1746025,1759167132.1871178,81.0093879699707,0.014543533325195312,0.06866455078125,65.40822982788086,65.47689437866211,65.5214786529541,65.97232818603516
1759167132.2557662,1759167132.2652605,104.86507415771484,0.014781951904296875,0.06961822509765625,91.34721755981445,91.41683578491211,91.46285057067871,91.9182300567627
1759167132.3607814,1759167132.3621795,121.11473083496094,0.014543533325195312,0.07224082946777344,101.60517692565918,101.67741775512695,101.75371170043945,102.30660438537598
1759167132.4856064,1759167132.564624,147.42755889892578,0.03719329833984375,0.0705718994140625,64.30935859680176,64.37993049621582,64.45813179016113,65.76704978942871
1759167132.6366384,1759167132.6393294,86.4713191986084,0.015735626220703125,0.0705718994140625,82.85212516784668,82.92269706726074,82.97872543334961,83.43791961669922
1759167132.7250774,1759167132.726568,84.96785163879395,0.0152587890625,0.06818771362304688,72.87263870239258,72.94082641601562,72.98755645751953,73.45914840698242
1759167132.810194,1759167132.8116426,78.43995094299316,0.015497207641601562,0.06866455078125,75.2720832824707,75.34074783325195,75.39057731628418,75.87671279907227
1759167132.8916354,1759167132.8970814,72.3876953125,0.015497207641601562,0.06747245788574219,62.36672401428223,62.43419647216797,62.48021125793457,62.923431396484375
1759167132.9676366,1759167132.9704614,81.08115196228027,0.015974044799804688,0.08416175842285156,54.5656681060791,54.64982986450195,54.7027587890625,55.14645576477051
1759167133.0526383,1759167133.0570567,103.93500328063965,0.015020370483398438,0.06985664367675781,94.76041793823242,94.83027458190918,94.8801040649414,95.33309936523438
1759167133.1567242,1759167133.1630285,73.77099990844727,0.015020370483398438,0.07176399230957031,60.08315086364746,60.15491485595703,60.19854545593262,60.64009666442871
1759167133.2306004,1759167133.288483,128.03316116333008,0.0400543212890625,0.06604194641113281,62.7446174621582,62.810659408569336,62.90316581726074,67.14820861816406
1759167133.3587382,1759167133.3644898,71.89321517944336,0.030755996704101562,0.07390975952148438,59.264421463012695,59.33833122253418,59.41128730773926,59.89956855773926
1759167133.4307811,1759167133.436117,69.91291046142578,0.014543533325195312,0.06890296936035156,58.998823165893555,59.067726135253906,59.1120719909668,59.5555305480957
1759167133.5008407,1759167133.5060668,76.79176330566406,0.015020370483398438,0.06937980651855469,63.733577728271484,63.80295753479004,63.85302543640137,64.29338455200195
1759167133.5777826,1759167133.5830789,73.78864288330078,0.015497207641601562,0.06794929504394531,55.146217346191406,55.21416664123535,55.26423454284668,55.71246147155762
1759167133.6517558,1759167133.67217,162.20998764038086,0.11181831359863281,0.0705718994140625,69.00382041931152,69.07439231872559,132.40933418273926,133.0862045288086
1759167133.819597,1759167133.8362386,143.74923706054688,0.12445449829101562,0.07081031799316406,35.115718841552734,35.1865291595459,76.81655883789062,125.35691261291504
1759167133.9634683,1759167133.9814456,163.19990158081055,69.74291801452637,0.06556510925292969,67.96884536743164,68.03441047668457,137.9086971282959,138.77153396606445
1759167134.1271918,1759167134.1406832,90.44051170349121,0.016927719116210938,0.06914138793945312,70.03593444824219,70.10507583618164,70.220947265625,70.98126411437988
1759167134.2177374,1759167134.2422416,119.26841735839844,0.015497207641601562,0.06961822509765625,81.33530616760254,81.4049243927002,81.46023750305176,81.93492889404297
1759167134.337155,1759167134.383831,115.4792308807373,0.032901763916015625,0.06651878356933594,65.81401824951172,65.88053703308105,65.96493721008301,67.06023216247559
1759167134.452786,1759167134.4583967,71.3648796081543,0.014543533325195312,0.07081031799316406,58.5634708404541,58.634281158447266,58.67910385131836,59.14115905761719
1759167134.5243013,1759167134.527987,90.2717113494873,0.014781951904296875,0.06842613220214844,78.60660552978516,78.6750316619873,78.73082160949707,79.1935920715332
1759167134.61473,1759167134.6161368,74.84650611877441,0.014543533325195312,0.06794929504394531,70.42956352233887,70.49751281738281,70.54328918457031,70.98245620727539
1759167134.689733,1759167134.694063,70.89900970458984,0.0152587890625,0.06985664367675781,64.34488296508789,64.41473960876465,64.47577476501465,64.93639945983887
1759167134.7607358,1759167134.7693841,67.89994239807129,0.014543533325195312,0.07009506225585938,53.24506759643555,53.315162658691406,53.36570739746094,53.80606651306152
1759167134.832593,1759167134.8361268,78.04131507873535,0.014066696166992188,0.07033348083496094,70.77312469482422,70.84345817565918,70.88994979858398,71.3341236114502
1759167134.9107845,1759167134.9160657,73.23575019836426,0.015735626220703125,0.06890296936035156,63.92550468444824,63.994407653808594,64.04662132263184,64.49389457702637
1759167134.9866343,1759167134.991976,80.00040054321289,0.015020370483398438,0.06818771362304688,67.43884086608887,67.50702857971191,67.56258010864258,68.01342964172363
1759167135.066787,1759167135.0720718,75.93584060668945,0.015020370483398438,0.06985664367675781,61.037540435791016,61.10739707946777,61.16223335266113,61.615705490112305
1759167135.1437273,1759167135.1509817,81.63118362426758,0.0152587890625,0.06914138793945312,63.803911209106445,63.8730525970459,63.918352127075195,64.35537338256836
1759167135.225534,1759167135.2300549,74.51152801513672,0.015497207641601562,0.06818771362304688,65.34624099731445,65.4144287109375,65.47665596008301,65.93132019042969
1759167135.3001456,1759167135.3015707,107.7115535736084,0.015497207641601562,0.06866455078125,98.89483451843262,98.96349906921387,99.01309013366699,99.49254989624023
1759167135.4080074,1759167135.4100885,94.62785720825195,0.015497207641601562,0.06842613220214844,75.17433166503906,75.24275779724121,75.28829574584961,75.7291316986084
1759167135.5035946,1759167135.5117831,96.25554084777832,0.0171661376953125,0.06794929504394531,85.40201187133789,85.46996116638184,85.51669120788574,89.65396881103516
1759167135.6003506,1759167135.6111,106.28271102905273,0.015497207641601562,0.06723403930664062,89.95175361633301,90.01898765563965,90.06500244140625,90.50130844116211
1759167135.7067854,1759167135.71512,100.84843635559082,0.0152587890625,0.07009506225585938,88.3185863494873,88.38868141174316,88.43421936035156,88.87410163879395
1759167135.8077853,1759167135.8171434,104.08520698547363,0.015497207641601562,0.06842613220214844,81.86221122741699,81.93063735961914,82.01980590820312,82.62801170349121
1759167135.9120207,1759167135.9170666,99.83539581298828,0.015497207641601562,0.06914138793945312,89.51425552368164,89.5833969116211,89.63823318481445,90.09957313537598
1759167136.0120077,1759167136.0280986,101.6240119934082,0.014781951904296875,0.06890296936035156,80.0468921661377,80.11579513549805,80.16443252563477,80.62553405761719
1759167136.1137915,1759167136.1181157,84.14506912231445,0.0152587890625,0.06771087646484375,73.48203659057617,73.54974746704102,73.59862327575684,74.04923439025879
1759167136.1980882,1759167136.1994658,78.54557037353516,0.014781951904296875,0.07796287536621094,72.68190383911133,72.75986671447754,72.81112670898438,73.2429027557373
1759167136.2786427,1759167136.2831802,73.66943359375,0.0152587890625,0.06794929504394531,66.31636619567871,66.38431549072266,66.43795967102051,66.88761711120605
1759167136.3524613,1759167136.359074,85.17217636108398,0.015497207641601562,0.07009506225585938,75.55437088012695,75.62446594238281,75.67977905273438,76.14398002624512
1759167136.437783,1759167136.44498,73.78864288330078,0.014543533325195312,0.07128715515136719,58.32052230834961,58.39180946350098,58.44259262084961,58.91251564025879
1759167136.5117247,1759167136.5170755,75.89125633239746,0.0152587890625,0.06914138793945312,59.934139251708984,60.00328063964844,60.0588321685791,60.515642166137695
1759167136.5877757,1759167136.5930603,77.24761962890625,0.015020370483398438,0.06699562072753906,65.95516204833984,66.02215766906738,66.07747077941895,66.53118133544922
1759167136.6651695,1759167136.6711292,104.14481163024902,0.0152587890625,0.07390975952148438,89.47920799255371,89.5531177520752,89.60247039794922,97.86176681518555
1759167136.7694154,1759167136.7708719,82.21793174743652,0.015020370483398438,0.06818771362304688,75.00100135803223,75.06918907165527,75.11711120605469,75.57153701782227
1759167136.851784,1759167136.8569405,78.84979248046875,0.016689300537109375,0.07009506225585938,71.62070274353027,71.69079780578613,71.7465877532959,72.32499122619629
1759167136.9307837,1759167136.9381242,73.18425178527832,0.015020370483398438,0.06818771362304688,60.752153396606445,60.82034111022949,60.87183952331543,61.31291389465332
1759167137.007577,1759167137.0101163,77.41904258728027,0.015974044799804688,0.06961822509765625,67.80123710632324,67.8708553314209,67.92211532592773,68.37081909179688
1759167137.0866358,1759167137.0930638,103.99222373962402,0.0152587890625,0.06771087646484375,87.72110939025879,87.78882026672363,87.84365653991699,88.30523490905762
1759167137.190897,1759167137.1987312,146.67868614196777,69.55242156982422,0.07891654968261719,61.975717544555664,62.05463409423828,131.73770904541016,132.52854347229004
1759167137.3425949,1759167137.355512,146.86107635498047,0.1964569091796875,0.07128715515136719,45.499563217163086,45.57085037231445,129.00948524475098,129.89282608032227
1759167137.4896228,1759167137.4960494,141.22915267944336,43.55978965759277,0.06318092346191406,41.33963584899902,41.40281677246094,126.70373916625977,131.35933876037598
1759167137.6382308,1759167137.68629,135.7560157775879,0.03695487976074219,0.06937980651855469,85.19935607910156,85.26873588562012,85.35027503967285,90.86441993713379
1759167137.775638,1759167137.782465,98.63567352294922,0.015497207641601562,0.07462501525878906,81.23230934143066,81.30693435668945,81.35390281677246,81.79807662963867
1759167137.8744576,1759167137.8763814,98.17695617675781,0.0171661376953125,0.06914138793945312,88.48738670349121,88.55652809143066,88.62090110778809,89.36882019042969
1759167137.9727886,1759167137.9743128,90.87657928466797,0.014781951904296875,0.07390975952148438,88.38725090026855,88.46116065979004,88.52219581604004,89.02907371520996
1759167138.0644772,1759167138.0743186,100.44002532958984,0.02574920654296875,0.06937980651855469,44.167518615722656,44.23689842224121,44.455766677856445,87.14556694030762
1759167138.1650689,1759167138.181305,130.5081844329834,0.1087188720703125,0.06914138793945312,60.8065128326416,60.875654220581055,103.76477241516113,104.44402694702148
1759167138.295733,1759167138.3001323,57.97719955444336,0.0152587890625,0.06723403930664062,41.62335395812988,41.69058799743652,41.742563247680664,42.18721389770508
1759167138.3576357,1759167138.3620641,72.99637794494629,0.0152587890625,0.06723403930664062,64.67938423156738,64.74661827087402,64.79430198669434,65.25301933288574
1759167138.4307806,1759167138.4370565,74.85628128051758,0.015020370483398438,0.06961822509765625,58.664798736572266,58.73441696166992,58.785438537597656,59.242963790893555
1759167138.5057867,1759167138.5120683,74.92375373840332,0.014781951904296875,0.06961822509765625,63.588619232177734,63.65823745727539,63.710927963256836,64.17202949523926
1759167138.5821247,1759167138.588057,72.57533073425293,0.014543533325195312,0.06937980651855469,58.23040008544922,58.29977989196777,58.35080146789551,58.88867378234863
1759167138.655651,1759167138.6570306,98.36864471435547,0.01430511474609375,0.06937980651855469,85.28447151184082,85.35385131835938,85.40129661560059,85.85548400878906
1759167138.754163,1759167138.7699828,79.69093322753906,0.014781951904296875,0.0705718994140625,60.04738807678223,60.11795997619629,60.16945838928223,60.61100959777832
1759167138.8340013,1759167138.84001,77.95333862304688,0.015974044799804688,0.07033348083496094,66.15948677062988,66.22982025146484,66.28108024597168,66.75362586975098
1759167138.9121666,1759167138.9176114,80.59167861938477,0.015020370483398438,0.06985664367675781,64.56208229064941,64.63193893432617,64.68415260314941,65.14310836791992
1759167138.9946456,1759167139.0010734,76.99012756347656,0.015497207641601562,0.0705718994140625,61.15150451660156,61.222076416015625,61.27667427062988,67.98982620239258
1759167139.0717866,1759167139.0800164,79.84685897827148,0.020265579223632812,0.06771087646484375,68.18389892578125,68.2516098022461,68.31145286560059,69.75913047790527
1759167139.1556056,1759167139.1636846,56.020498275756836,0.015020370483398438,0.07295608520507812,41.69297218322754,41.76592826843262,41.877031326293945,42.528629302978516
1759167139.2126327,1759167139.2190778,83.00018310546875,0.015497207641601562,0.06961822509765625,69.50163841247559,69.57125663757324,69.62084770202637,70.08242607116699
1759167139.2957842,1759167139.3015554,109.55071449279785,0.01621246337890625,0.06890296936035156,99.54023361206055,99.6091365814209,99.67708587646484,100.23236274719238
1759167139.4055383,1759167139.4070556,92.65398979187012,0.014781951904296875,0.06842613220214844,80.26576042175293,80.33418655395508,80.39379119873047,80.9023380279541
1759167139.4982932,1759167139.49974,99.71189498901367,0.014543533325195312,0.06890296936035156,97.33915328979492,97.40805625915527,97.45311737060547,97.92113304138184
1759167139.5981524,1759167139.5996041,96.9853401184082,0.015020370483398438,0.06842613220214844,83.58216285705566,83.65058898925781,83.69874954223633,84.16533470153809
1759167139.6952908,1759167139.6968682,95.4582691192627,0.0152587890625,0.11444091796875,85.04605293273926,85.16049385070801,85.20960807800293,85.72125434875488
1759167139.7908974,1759167139.794089,84.89060401916504,0.015020370483398438,0.06794929504394531,80.80577850341797,80.87372779846191,80.92212677001953,81.3603401184082
1759167139.8759372,1759167139.8839974,91.69530868530273,0.014543533325195312,0.07033348083496094,76.1568546295166,76.22718811035156,76.27272605895996,76.72882080078125
1759167139.968302,1759167139.9750686,92.33236312866211,0.014781951904296875,0.06747245788574219,82.15641975402832,82.22389221191406,82.2744369506836,82.72743225097656
1759167140.0607824,1759167140.0670803,99.1055965423584,0.015020370483398438,0.06818771362304688,88.48023414611816,88.54842185974121,88.59467506408691,89.0340805053711
1759167140.1616359,1759167140.165102,105.04961013793945,0.01430511474609375,0.06890296936035156,89.13469314575195,89.2035961151123,89.25151824951172,89.68591690063477
1759167140.2695928,1759167140.2740588,94.13337707519531,0.0152587890625,0.06794929504394531,88.76180648803711,88.82975578308105,88.87553215026855,89.31851387023926
1759167140.3655937,1759167140.3669693,97.97954559326172,0.015020370483398438,0.06985664367675781,88.56201171875,88.63186836242676,88.67979049682617,89.11371231079102
1759167140.4637263,1759167140.46512,98.846435546875,0.01430511474609375,0.07462501525878906,89.94936943054199,90.02399444580078,90.0728702545166,90.52801132202148
1759167140.5627282,1759167140.567119,95.18265724182129,0.01430511474609375,0.06890296936035156,79.78677749633789,79.85568046569824,79.90288734436035,80.3370475769043
1759167140.6580145,1759167140.6594532,107.61904716491699,0.015497207641601562,6.143093109130859,92.86785125732422,99.01094436645508,99.1063117980957,99.59125518798828
1759167140.7657385,1759167140.7711358,110.11838912963867,0.014066696166992188,0.06771087646484375,96.5280532836914,96.59576416015625,96.64678573608398,97.1214771270752
1759167140.8760056,1759167140.8841393,109.85732078552246,0.017404556274414062,0.06890296936035156,97.65362739562988,97.72253036499023,97.78809547424316,102.4479866027832
1759167140.9860144,1759167140.987405,98.84166717529297,0.014543533325195312,0.06914138793945312,93.2466983795166,93.31583976745605,93.36042404174805,93.79220008850098
1759167141.0887368,1759167141.0994155,145.89762687683105,60.666799545288086,0.06341934204101562,70.4345703125,70.49798965454102,131.29591941833496,132.1423053741455
1759167141.2395983,1759167141.2474003,128.42226028442383,77.42619514465332,0.06389617919921875,38.75732421875,38.82122039794922,116.38116836547852,117.21515655517578
1759167141.3681493,1759167141.3839943,79.5283317565918,0.01621246337890625,0.06794929504394531,58.393239974975586,58.46118927001953,58.51888656616211,58.96878242492676
1759167141.4520483,1759167141.500268,117.52748489379883,0.03409385681152344,0.06866455078125,66.21265411376953,66.28131866455078,66.36381149291992,71.51556015014648
1759167141.5735972,1759167141.5823095,70.26219367980957,0.017404556274414062,0.0705718994140625,49.964189529418945,50.03476142883301,50.08363723754883,57.98077583312988
1759167141.6440096,1759167141.6490643,95.14737129211426,0.014781951904296875,0.06890296936035156,86.40241622924805,86.4713191986084,86.52734756469727,86.99822425842285
1759167141.7392592,1759167141.7500234,106.46295547485352,0.025033950805664062,0.07081031799316406,40.57955741882324,40.650367736816406,40.86709022521973,86.25197410583496
1759167141.84587,1759167141.8537123,73.18592071533203,0.016927719116210938,0.06937980651855469,61.05327606201172,61.12265586853027,61.23638153076172,61.95497512817383
1759167141.9206352,1759167141.9251375,75.98280906677246,0.017404556274414062,0.07033348083496094,59.017181396484375,59.087514877319336,59.14711952209473,59.721946716308594
1759167141.9967735,1759167142.0070312,84.00535583496094,0.015497207641601562,0.06914138793945312,67.5201416015625,67.58928298950195,67.64435768127441,68.13192367553711
1759167142.0813165,1759167142.132724,138.03434371948242,0.034332275390625,0.06771087646484375,79.61773872375488,79.68544960021973,79.76937294006348,86.94601058959961
1759167142.222596,1759167142.2292206,128.66473197937012,0.025272369384765625,0.06961822509765625,56.57601356506348,56.64563179016113,56.86330795288086,118.54434013366699
1759167142.3536391,1759167142.3609388,49.7586727142334,0.01811981201171875,0.07152557373046875,41.53156280517578,41.60308837890625,41.661739349365234,42.19174385070801
1759167142.406635,1759167142.411059,56.99753761291504,0.014781951904296875,0.06890296936035156,44.35253143310547,44.42143440246582,45.172691345214844,45.607566833496094
1759167142.463782,1759167142.4671285,45.83549499511719,0.01621246337890625,0.06937980651855469,34.52730178833008,34.59668159484863,34.64841842651367,36.14044189453125
1759167142.50977,1759167142.5154147,122.25890159606934,55.214643478393555,0.06365776062011719,55.13167381286621,55.19533157348633,110.53967475891113,111.30166053771973
1759167142.6321793,1759167142.6383762,120.91779708862305,42.21177101135254,0.0629425048828125,69.55528259277344,69.61822509765625,111.95611953735352,112.75672912597656
1759167142.7541296,1759167142.7654042,145.89333534240723,59.504032135009766,0.06270408630371094,69.4732666015625,69.53597068786621,129.17757034301758,130.04159927368164
1759167142.9022915,1759167142.9506547,166.34058952331543,44.93308067321777,0.06270408630371094,59.69595909118652,59.758663177490234,104.82454299926758,114.39061164855957
1759167143.0687933,1759167143.0757983,72.84021377563477,0.016927719116210938,0.072479248046875,60.1346492767334,60.20712852478027,60.259342193603516,60.953378677368164
1759167143.1436377,1759167143.1486812,84.21945571899414,0.015974044799804688,0.07009506225585938,75.13976097106934,75.2098560333252,75.26612281799316,75.74248313903809
1759167143.227957,1759167143.240087,79.6816349029541,0.014543533325195312,0.06794929504394531,64.77975845336914,64.84770774841309,64.89324569702148,65.32669067382812
1759167143.3077872,1759167143.3130937,81.84695243835449,0.014781951904296875,0.07128715515136719,68.7553882598877,68.82667541503906,68.88079643249512,69.36860084533691
1759167143.389785,1759167143.3950694,74.84555244445801,0.0152587890625,0.06914138793945312,59.552907943725586,59.62204933166504,59.67378616333008,60.1198673248291
1759167143.4647799,1759167143.4710586,72.79634475708008,0.015020370483398438,0.06794929504394531,59.549570083618164,59.61751937866211,59.67092514038086,60.126304626464844
1759167143.5386345,1759167143.546103,70.38760185241699,0.014781951904296875,0.07104873657226562,58.383941650390625,58.45499038696289,58.50863456726074,58.968305587768555
1759167143.6092858,1759167143.6146214,71.2885856628418,0.015735626220703125,0.06651878356933594,62.00242042541504,62.068939208984375,62.12449073791504,62.60371208190918
1759167143.6807292,1759167143.6859791,80.9030532836914,0.015735626220703125,0.06723403930664062,71.66814804077148,71.73538208007812,71.78187370300293,72.22270965576172
1759167143.7617848,1759167143.767141,87.23998069763184,0.0152587890625,0.06914138793945312,73.78101348876953,73.85015487670898,73.90832901000977,74.37491416931152
1759167143.8515468,1759167143.8561356,92.4844741821289,0.015020370483398438,0.06961822509765625,83.69874954223633,83.76836776733398,83.81390571594238,84.259033203125
1759167143.9441779,1759167143.948653,107.6817512512207,0.021219253540039062,0.06747245788574219,100.56591033935547,100.63338279724121,100.69060325622559,104.2027473449707
1759167144.055637,1759167144.0590825,98.02436828613281,0.014781951904296875,0.06771087646484375,90.61169624328613,90.67940711975098,90.73734283447266,91.20726585388184
1759167144.1538248,1759167144.1591587,97.81789779663086,0.01621246337890625,0.0743865966796875,88.56511116027832,88.63949775695801,88.69314193725586,89.18595314025879
1759167144.2556043,1759167144.2601228,124.01747703552246,0.01621246337890625,0.07390975952148438,94.11215782165527,94.18606758117676,94.2373275756836,104.79044914245605
1759167144.3811204,1759167144.4397435,110.68201065063477,0.35762786865234375,0.07224082946777344,46.79703712463379,46.86927795410156,47.310829162597656,100.4188060760498
1759167144.4966755,1759167144.5608997,145.26867866516113,0.034332275390625,0.07104873657226562,72.99971580505371,73.07076454162598,73.15731048583984,74.22828674316406
1759167144.6457317,1759167144.7165217,159.84511375427246,0.03457069396972656,0.06961822509765625,81.07733726501465,81.1469554901123,81.23254776000977,90.55924415588379
1759167144.8057334,1759167144.8111286,99.1671085357666,0.014781951904296875,0.06842613220214844,87.5861644744873,87.65459060668945,87.70060539245605,88.13810348510742
1759167144.9050028,1759167144.9100902,108.86001586914062,0.014781951904296875,0.06771087646484375,85.17169952392578,85.23941040039062,85.29067039489746,99.75624084472656
1759167145.014017,1759167145.015415,85.84833145141602,0.015735626220703125,0.06771087646484375,79.11539077758789,79.18310165405273,79.23293113708496,79.68592643737793
1759167145.1000564,1759167145.113083,104.57825660705566,0.014543533325195312,0.06842613220214844,88.29212188720703,88.36054801940918,88.4096622467041,88.86098861694336
1759167145.2047856,1759167145.2061775,94.9254035949707,0.014543533325195312,0.06914138793945312,88.92536163330078,88.99450302124023,89.03980255126953,89.47896957397461
1759167145.302643,1759167145.3070576,94.98929977416992,0.014781951904296875,0.06794929504394531,87.44311332702637,87.51106262207031,87.55636215209961,87.99481391906738
1759167145.397783,1759167145.3991969,103.79362106323242,0.015974044799804688,0.06985664367675781,90.28291702270508,90.35277366638184,90.40236473083496,90.86918830871582
1759167145.501731,1759167145.506395,150.12359619140625,64.98503684997559,0.06532669067382812,65.37270545959473,65.43803215026855,130.5553913116455,141.48354530334473
1759167145.6580048,1759167145.7068255,121.73056602478027,0.03528594970703125,0.06866455078125,65.09566307067871,65.16432762145996,65.23966789245605,67.43597984313965
1759167145.7798364,1759167145.8478653,165.40145874023438,0.03409385681152344,0.06747245788574219,89.40243721008301,89.46990966796875,89.55812454223633,98.21581840515137
1759167145.945393,1759167145.9468315,96.24290466308594,0.0152587890625,0.06914138793945312,87.15319633483887,87.22233772277832,87.26978302001953,87.7065658569336
1759167146.0417883,1759167146.044378,103.06024551391602,0.017881393432617188,0.07462501525878906,94.42019462585449,94.49481964111328,94.56062316894531,95.31950950622559
1759167146.146619,1759167146.1584125,112.83516883850098,43.65253448486328,0.06270408630371094,54.315805435180664,54.378509521484375,98.17004203796387,99.00569915771484
1759167146.2665954,1759167146.2680213,111.32001876831055,0.014543533325195312,0.06723403930664062,86.10272407531738,86.16995811462402,86.21549606323242,86.65704727172852
1759167146.3780637,1759167146.3831325,80.56902885437012,0.015497207641601562,0.07581710815429688,70.4038143157959,70.4796314239502,70.57714462280273,71.07710838317871
1759167146.458782,1759167146.4679806,110.07952690124512,0.0152587890625,0.06985664367675781,92.44418144226074,92.5140380859375,92.56935119628906,93.02353858947754
1759167146.5690122,1759167146.578101,106.05931282043457,0.014781951904296875,0.07343292236328125,96.06003761291504,96.13347053527832,96.18091583251953,96.62914276123047
1759167146.676637,1759167146.6856759,146.41833305358887,0.025987625122070312,0.07104873657226562,67.0006275177002,67.07167625427246,67.28672981262207,133.86273384094238
1759167146.8231585,1759167146.8439891,118.47758293151855,0.015497207641601562,0.06866455078125,82.33428001403809,82.40294456481934,82.4582576751709,93.97053718566895
1759167146.9417875,1759167146.9470909,91.87150001525879,0.0152587890625,0.07081031799316406,85.67190170288086,85.74271202087402,85.78920364379883,86.23123168945312
1759167147.0366387,1759167147.0410657,99.44319725036621,0.015497207641601562,0.06890296936035156,87.22543716430664,87.29434013366699,87.34297752380371,87.79358863830566
1759167147.1376352,1759167147.1993008,126.2056827545166,0.08344650268554688,0.06985664367675781,60.565948486328125,60.63580513000488,62.278032302856445,123.04973602294922
1759167147.2639856,1759167147.3098578,187.64495849609375,66.96796417236328,0.06461143493652344,65.44780731201172,65.51241874694824,132.6160430908203,138.11659812927246
1759167147.4517858,1759167147.4646525,60.845136642456055,0.016927719116210938,0.07081031799316406,39.96467590332031,40.03548622131348,40.151119232177734,41.0618782043457
1759167147.5127826,1759167147.5160787,75.79517364501953,0.016689300537109375,0.07367134094238281,58.7918758392334,58.86554718017578,58.91871452331543,59.42249298095703
1759167147.588744,1759167147.5941124,72.14069366455078,0.015735626220703125,0.07033348083496094,62.6223087310791,62.69264221191406,62.74080276489258,63.21835517883301
1759167147.6611018,1759167147.6660764,67.60382652282715,0.015020370483398438,0.06866455078125,56.061506271362305,56.130170822143555,56.180477142333984,56.630611419677734
1759167147.7292814,1759167147.7385414,71.7771053314209,0.017642974853515625,0.07009506225585938,57.440996170043945,57.511091232299805,57.62052536010742,58.3651065826416
1759167147.802632,1759167147.808077,90.9433364868164,0.015020370483398438,0.06937980651855469,79.8799991607666,79.94937896728516,79.99944686889648,80.4586410522461
1759167147.893727,1759167147.8957908,97.17988967895508,0.017642974853515625,0.06985664367675781,88.88888359069824,88.958740234375,89.02478218078613,89.77365493774414
1759167147.9910564,1759167147.9961648,84.9609375,0.017881393432617188,0.06842613220214844,75.68001747131348,75.74844360351562,75.81162452697754,76.55048370361328
1759167148.0779562,1759167148.083549,71.06637954711914,0.015497207641601562,0.07510185241699219,61.312198638916016,61.38730049133301,61.43951416015625,61.88774108886719
1759167148.152639,1759167148.1559126,69.99444961547852,0.0152587890625,0.06985664367675781,60.602664947509766,60.67252159118652,60.72640419006348,61.18583679199219
1759167148.2227833,1759167148.2329912,79.5447826385498,0.0152587890625,0.06914138793945312,68.43876838684082,68.50790977478027,68.56346130371094,69.0300464630127
1759167148.3024707,1759167148.310993,73.06790351867676,0.014543533325195312,0.06890296936035156,63.65656852722168,63.72547149658203,63.77053260803223,64.21518325805664
1759167148.3756833,1759167148.383992,83.9540958404541,0.015497207641601562,0.06866455078125,71.0446834564209,71.11334800720215,71.17128372192383,71.63500785827637
1759167148.4597895,1759167148.4680967,100.10814666748047,0.015497207641601562,0.06890296936035156,87.84961700439453,87.91851997375488,87.96811103820801,88.4244441986084
1759167148.560044,1759167148.5652626,93.52946281433105,0.015497207641601562,0.06961822509765625,83.95767211914062,84.02729034423828,84.07306671142578,84.51700210571289
1759167148.653726,1759167148.6614578,104.88295555114746,0.0152587890625,0.07414817810058594,93.57357025146484,93.64771842956543,93.69444847106934,94.12932395935059
1759167148.7587612,1759167148.767484,101.09734535217285,0.015497207641601562,0.07963180541992188,88.01555633544922,88.09518814086914,88.14239501953125,88.58919143676758
1759167148.8600063,1759167148.8681085,96.02618217468262,0.014781951904296875,0.06890296936035156,87.01467514038086,87.08357810974121,87.13054656982422,87.57376670837402
1759167148.956176,1759167148.961141,97.54800796508789,0.015020370483398438,0.06794929504394531,81.9547176361084,82.02266693115234,82.07416534423828,82.54480361938477
1759167149.0576346,1759167149.0620604,96.94051742553711,0.015020370483398438,0.06794929504394531,85.10661125183105,85.174560546875,85.22367477416992,85.6776237487793
1759167149.1547337,1759167149.1611967,91.16268157958984,0.015735626220703125,0.06866455078125,79.40196990966797,79.47063446044922,79.51641082763672,79.95772361755371
1759167149.2460463,1759167149.2510593,66.98107719421387,0.015735626220703125,0.07009506225585938,56.22386932373047,56.29396438598633,56.34617805480957,56.789398193359375
1759167149.3166344,1759167149.3210707,78.01651954650879,0.0152587890625,0.07176399230957031,67.11983680725098,67.19160079956055,67.24357604980469,67.68202781677246
1759167149.394801,1759167149.4001772,84.83338356018066,0.01430511474609375,0.07319450378417969,67.27099418640137,67.34418869018555,67.39139556884766,67.83556938171387
1759167149.479785,1759167149.4850786,116.78957939147949,0.014543533325195312,0.06961822509765625,103.04641723632812,103.11603546142578,103.1646728515625,103.61242294311523
1759167149.5967264,1759167149.601051,106.74691200256348,0.014781951904296875,0.07200241088867188,99.87425804138184,99.94626045227051,99.99370574951172,100.44121742248535
1759167149.7046778,1759167149.7115884,105.24415969848633,0.0152587890625,0.07081031799316406,88.0589485168457,88.12975883483887,88.17577362060547,88.6225700378418
1759167149.8100696,1759167149.8150723,91.64214134216309,0.014543533325195312,0.06794929504394531,74.02420043945312,74.09214973449707,74.14579391479492,74.59759712219238
1759167149.9018607,1759167149.9033036,93.15633773803711,0.014543533325195312,0.06914138793945312,87.55731582641602,87.62645721435547,87.67437934875488,88.14358711242676
1759167149.9951615,1759167149.9966173,99.47705268859863,0.014781951904296875,0.06937980651855469,84.4569206237793,84.52630043029785,84.57303047180176,85.03603935241699
1759167150.0948231,1759167150.0962524,96.23908996582031,0.014781951904296875,0.06914138793945312,91.49312973022461,91.56227111816406,91.63045883178711,92.15784072875977
1759167150.1912136,1759167150.192724,96.36092185974121,0.01621246337890625,0.09703636169433594,86.91191673278809,87.00895309448242,87.05592155456543,87.5544548034668
1759167150.2877278,1759167150.2924833,78.31025123596191,0.014781951904296875,0.08106231689453125,68.6652660369873,68.74632835388184,68.79830360412598,69.23604011535645
1759167150.3661847,1759167150.3676262,90.4531478881836,0.0152587890625,0.06747245788574219,86.77530288696289,86.84277534484863,86.89713478088379,87.36634254455566
1759167150.460596,1759167150.4671566,103.31940650939941,0.015735626220703125,0.07128715515136719,89.48421478271484,89.55550193786621,89.60366249084473,90.06595611572266
1759167150.564068,1759167150.5731287,104.84552383422852,0.016450881958007812,0.0705718994140625,87.34464645385742,87.41521835327148,87.46480941772461,87.91971206665039
1759167150.6690667,1759167150.6765597,111.01675033569336,0.017881393432617188,0.07081031799316406,102.54526138305664,102.6160717010498,102.68235206604004,103.45292091369629
1759167150.7802348,1759167150.781729,91.90630912780762,0.014781951904296875,0.0705718994140625,83.47964286804199,83.55021476745605,83.59575271606445,84.06591415405273
1759167150.8722448,1759167150.8736875,95.33047676086426,0.015497207641601562,0.0705718994140625,89.24174308776855,89.31231498718262,89.36524391174316,89.84613418579102
1759167150.9677331,1759167150.9700902,107.61141777038574,0.015020370483398438,0.07033348083496094,94.65765953063965,94.72799301147461,94.77710723876953,95.23200988769531
1759167151.075519,1759167151.0769107,97.45478630065918,0.015020370483398438,0.07009506225585938,80.79791069030762,80.86800575256348,80.91330528259277,81.35104179382324
1759167151.1731224,1759167151.1745236,92.45157241821289,0.015735626220703125,0.07176399230957031,82.74340629577637,82.81517028808594,82.86118507385254,83.30535888671875
1759167151.2705944,1759167151.2731116,101.31573677062988,0.015020370483398438,0.07104873657226562,79.66732978820801,79.73837852478027,79.78963851928711,80.23595809936523
1759167151.3720572,1759167151.4423695,166.5184497833252,0.03504753112792969,0.06914138793945312,88.35792541503906,88.42706680297852,88.50789070129395,93.50728988647461
1759167151.5407944,1759167151.5531483,146.28911018371582,0.11014938354492188,0.07534027099609375,57.36112594604492,57.436466217041016,121.29426002502441,127.04181671142578
1759167151.6905956,1759167151.7001069,101.70626640319824,0.014781951904296875,0.06794929504394531,83.82034301757812,83.88829231262207,83.98628234863281,84.6099853515625
1759167151.79245,1759167151.797068,96.48537635803223,0.0152587890625,0.06937980651855469,87.23855018615723,87.30792999267578,87.36371994018555,87.94236183166504
1759167151.8935943,1759167151.905709,148.61011505126953,0.0247955322265625,0.06961822509765625,61.498403549194336,61.56802177429199,61.79070472717285,133.94427299499512
1759167152.0424075,1759167152.0871053,182.27815628051758,0.1366138458251953,0.06866455078125,61.9349479675293,62.00361251831055,130.8748722076416,133.439302444458
1759167152.2287223,1759167152.2390919,102.91361808776855,0.015974044799804688,0.06651878356933594,82.8094482421875,82.87596702575684,82.93437957763672,83.39595794677734
1759167152.333446,1759167152.3348482,90.59572219848633,0.0152587890625,0.06914138793945312,81.94851875305176,82.01766014099121,82.06391334533691,82.50117301940918
1759167152.424187,1759167152.4286895,99.99990463256836,0.017404556274414062,0.06723403930664062,93.57380867004395,93.64104270935059,93.6896800994873,97.19419479370117
1759167152.5276914,1759167152.5400267,92.94271469116211,0.017881393432617188,0.06961822509765625,69.97942924499512,70.04904747009277,70.1150894165039,79.11252975463867
1759167152.6207972,1759167152.6270566,80.10363578796387,0.014543533325195312,0.06937980651855469,67.98171997070312,68.05109977722168,68.09878349304199,68.57943534851074
1759167152.704906,1759167152.7143095,135.61129570007324,0.10943412780761719,0.06818771362304688,46.634674072265625,46.70286178588867,117.1259880065918,117.79403686523438
1759167152.841928,1759167152.8569884,94.91872787475586,0.0152587890625,0.06604194641113281,71.17033004760742,71.23637199401855,71.32983207702637,77.9869556427002
1759167152.941088,1759167152.9523504,131.8032741546631,55.60016632080078,0.06437301635742188,53.91287803649902,53.977251052856445,109.70830917358398,115.76151847839355
1759167153.0765705,1759167153.0884194,147.44877815246582,66.34521484375,0.06461143493652344,62.08038330078125,62.14499473571777,128.62253189086914,129.42957878112793
1759167153.2241476,1759167153.3033652,181.75244331359863,0.04029273986816406,0.08988380432128906,84.68890190124512,84.7787857055664,84.8701000213623,86.3962173461914
1759167153.4133072,1759167153.4191465,99.61128234863281,0.014781951904296875,0.07009506225585938,85.24465560913086,85.31475067138672,85.36958694458008,85.8302116394043
1759167153.5146358,1759167153.5885723,174.2234230041504,0.03528594970703125,0.06866455078125,88.56892585754395,88.6375904083252,88.72461318969727,89.84065055847168
1759167153.6910422,1759167153.6976883,102.74934768676758,0.014781951904296875,0.06961822509765625,86.59029006958008,86.65990829467773,86.70711517333984,87.16320991516113
1759167153.796235,1759167153.8021054,96.12393379211426,0.015020370483398438,0.06747245788574219,76.71308517456055,76.78055763244629,76.83563232421875,77.29315757751465
1759167153.895649,1759167153.900064,109.00330543518066,0.0152587890625,0.07009506225585938,86.49110794067383,86.56120300292969,86.61317825317383,87.05544471740723
1759167154.0048106,1759167154.0062542,99.99394416809082,0.014781951904296875,0.06985664367675781,97.6407527923584,97.71060943603516,97.75876998901367,98.21033477783203
1759167154.1049526,1759167154.1063948,88.07611465454102,0.014543533325195312,0.06961822509765625,81.23612403869629,81.30574226379395,81.35032653808594,81.8016529083252
1759167154.196643,1759167154.2010677,98.00219535827637,0.014543533325195312,0.07414817810058594,90.91806411743164,90.99221229553223,91.04561805725098,91.51148796081543
1759167154.2950137,1759167154.3021376,104.89511489868164,0.0171661376953125,0.07295608520507812,91.16220474243164,91.23516082763672,91.28713607788086,91.77637100219727
1759167154.4036374,1759167154.4061058,98.9539623260498,0.015497207641601562,0.07891654968261719,95.53289413452148,95.6118106842041,95.66307067871094,96.1298942565918
1759167154.5027418,1759167154.5041916,95.89052200317383,0.015020370483398438,0.07176399230957031,88.49287033081055,88.56463432312012,88.61017227172852,89.07270431518555
1759167154.5987804,1759167154.6021233,108.8554859161377,0.015020370483398438,0.0705718994140625,92.15307235717773,92.2236442565918,92.2689437866211,102.71596908569336
1759167154.7077858,1759167154.7091794,106.11629486083984,0.0152587890625,0.07176399230957031,97.0163345336914,97.08809852600098,97.13602066040039,97.58448600769043
1759167154.8140512,1759167154.8263683,112.58077621459961,0.017404556274414062,0.06890296936035156,95.64447402954102,95.71337699890137,95.77679634094238,96.53043746948242
1759167154.9335926,1759167154.9848156,134.9809169769287,0.08845329284667969,0.06198883056640625,67.4128532409668,67.4748420715332,67.6271915435791,125.26082992553711
1759167155.068729,1759167155.0789886,97.30720520019531,0.014781951904296875,0.06914138793945312,80.01470565795898,80.08384704589844,80.12890815734863,80.57928085327148
1759167155.1661818,1759167155.171138,99.45344924926758,0.015020370483398438,0.06985664367675781,85.91008186340332,85.97993850708008,86.02595329284668,86.4865779876709
1759167155.2676,1759167155.269041,100.37851333618164,0.0152587890625,0.07033348083496094,93.98579597473145,94.0561294555664,94.10309791564941,94.54607963562012
1759167155.3681092,1759167155.3695395,96.19927406311035,0.0152587890625,0.06914138793945312,81.8181037902832,81.88724517822266,81.93278312683105,94.44165229797363
1759167155.4644585,1759167155.4659033,103.40428352355957,0.015020370483398438,0.06937980651855469,86.6849422454834,86.75432205200195,86.80367469787598,87.2795581817627
1759167155.5680149,1759167155.5728774,107.86890983581543,0.017404556274414062,0.07128715515136719,96.21739387512207,96.28868103027344,96.35448455810547,97.1066951751709
1759167155.6776366,1759167155.6790211,74.20825958251953,0.015020370483398438,0.06985664367675781,65.87433815002441,65.94419479370117,66.05720520019531,66.69187545776367
1759167155.7536063,1759167155.7580597,94.15888786315918,0.015735626220703125,0.06842613220214844,84.3806266784668,84.44905281066895,84.50055122375488,84.93733406066895
1759167155.8496532,1759167155.863327,148.4513282775879,0.11682510375976562,0.08130073547363281,68.96066665649414,69.04196739196777,128.16715240478516,129.0147304534912
1759167155.998232,1759167156.0725489,166.34535789489746,0.034332275390625,0.07104873657226562,83.00256729125977,83.07361602783203,83.15730094909668,84.2897891998291
1759167156.1662078,1759167156.1676226,100.4941463470459,0.0152587890625,0.07081031799316406,98.12712669372559,98.19793701171875,98.24538230895996,98.724365234375
1759167156.2686367,1759167156.2774262,117.21587181091309,0.0152587890625,0.08130073547363281,104.50482368469238,104.58612442016602,104.6915054321289,105.41915893554688
1759167156.3946757,1759167156.3973467,100.95548629760742,0.01621246337890625,0.09179115295410156,93.57833862304688,93.67012977600098,93.72520446777344,94.31767463684082
1759167156.4957807,1759167156.5010903,100.0673770904541,0.015974044799804688,0.06818771362304688,86.01737022399902,86.08555793762207,86.13419532775879,86.57407760620117
1759167156.600595,1759167156.610276,151.30305290222168,66.23983383178711,0.06604194641113281,63.49754333496094,63.56358528137207,129.93264198303223,134.74106788635254
1759167156.7556326,1759167156.8331418,179.1367530822754,0.034809112548828125,0.07224082946777344,93.54853630065918,93.62077713012695,93.70636940002441,98.23441505432129
1759167156.9432075,1759167156.9633033,158.60700607299805,0.10848045349121094,0.06794929504394531,66.08295440673828,66.15090370178223,131.48903846740723,132.14969635009766
1759167157.1033063,1759167157.11713,144.49381828308105,0.016689300537109375,0.07009506225585938,61.71607971191406,61.78617477416992,61.86318397521973,62.65568733215332
1759167157.2535942,1759167157.3231747,157.98139572143555,0.032901763916015625,0.07319450378417969,82.28182792663574,82.35502243041992,82.44013786315918,91.31360054016113
1759167157.4133294,1759167157.4147604,101.09066963195801,0.015020370483398438,0.07009506225585938,96.29988670349121,96.36998176574707,96.4193344116211,96.9080924987793
1759167157.5145864,1759167157.5160086,95.04818916320801,0.0152587890625,0.06842613220214844,76.3704776763916,76.43890380859375,76.48468017578125,91.95566177368164
1759167157.609786,1759167157.611199,98.11115264892578,0.014781951904296875,0.06866455078125,90.83676338195801,90.90542793273926,90.95144271850586,91.39013290405273
1759167157.7079988,1759167157.716113,108.1552505493164,0.0152587890625,0.0705718994140625,86.17997169494629,86.25054359436035,86.29655838012695,86.7459774017334
1759167157.8186367,1759167157.8233874,98.30880165100098,0.015735626220703125,0.06961822509765625,83.59932899475098,83.66894721984863,83.71472358703613,84.16128158569336
1759167157.9171386,1759167157.918565,94.57802772521973,0.0152587890625,0.07009506225585938,83.09435844421387,83.16445350646973,83.20951461791992,83.65797996520996
1759167158.013606,1759167158.0150113,92.28944778442383,0.014781951904296875,0.06985664367675781,87.00346946716309,87.07332611083984,87.12244033813477,87.57567405700684
1759167158.1096373,1759167158.115085,84.98573303222656,0.014781951904296875,0.06961822509765625,78.65428924560547,78.72390747070312,78.76873016357422,79.2083740234375
1759167158.1965947,1759167158.2001,73.03881645202637,0.016689300537109375,0.07128715515136719,63.13514709472656,63.20643424987793,63.26150894165039,63.803911209106445
1759167158.2697825,1759167158.275067,69.87142562866211,0.015735626220703125,0.06890296936035156,58.87794494628906,58.946847915649414,59.00096893310547,59.450387954711914
1759167158.3397985,1759167158.3480537,82.83400535583496,0.015497207641601562,0.06771087646484375,70.8472728729248,70.91498374938965,71.00272178649902,71.51007652282715
1759167158.4227831,1759167158.4243326,102.03194618225098,0.018358230590820312,0.09226799011230469,92.99063682556152,93.08290481567383,93.13154220581055,93.62435340881348
1759167158.5288498,1759167158.603953,151.03435516357422,0.08916854858398438,0.06222724914550781,66.1473274230957,66.20955467224121,66.36261940002441,135.7412338256836
1759167158.6886368,1759167158.701436,142.1678066253662,58.557987213134766,0.06437301635742188,63.13753128051758,63.201904296875,121.89245223999023,126.83224678039551
1759167158.830932,1759167158.8481874,160.64739227294922,0.11730194091796875,0.07772445678710938,60.338497161865234,60.416221618652344,132.86423683166504,133.56637954711914
1759167158.9917374,1759167159.0051103,83.00566673278809,0.015735626220703125,0.06985664367675781,61.646461486816406,61.716318130493164,61.830759048461914,62.464237213134766
1759167159.078641,1759167159.0846117,146.07596397399902,0.025272369384765625,0.07581710815429688,62.574148178100586,62.64996528625488,62.88933753967285,131.32429122924805
1759167159.2248392,1759167159.229918,50.7969856262207,0.017881393432617188,0.07367134094238281,39.46661949157715,39.54029083251953,42.67764091491699,43.431997299194336
1759167159.275798,1759167159.2822175,81.08258247375488,0.01811981201171875,0.08606910705566406,65.7052993774414,65.79136848449707,65.8564567565918,66.42317771911621
1759167159.3695989,1759167159.3746157,146.9748020172119,37.16397285461426,0.06437301635742188,42.421579360961914,42.485952377319336,122.33090400695801,124.44877624511719
1759167159.5167265,1759167159.5257783,145.52569389343262,40.29226303100586,0.061511993408203125,40.86422920227051,40.92574119567871,81.48932456970215,132.51519203186035
1759167159.6741369,1759167159.6882772,123.18944931030273,0.11301040649414062,0.06628036499023438,53.59387397766113,53.66015434265137,106.57668113708496,107.23257064819336
1759167159.797473,1759167159.8423023,186.16223335266113,0.12946128845214844,0.07891654968261719,64.79430198669434,64.87321853637695,135.91790199279785,137.27688789367676
1759167159.983789,1759167159.9969823,87.04495429992676,0.0152587890625,0.06842613220214844,71.1982250213623,71.26665115356445,71.37823104858398,72.02363014221191
1759167160.0780785,1759167160.0913277,151.55315399169922,0.11229515075683594,0.07605552673339844,66.65563583374023,66.73169136047363,126.13391876220703,126.8014907836914
1759167160.233596,1759167160.247308,94.26069259643555,0.017642974853515625,0.07367134094238281,73.05026054382324,73.12393188476562,74.39613342285156,75.12593269348145
1759167160.3320549,1759167160.3429532,98.80590438842773,0.015735626220703125,0.06651878356933594,81.21442794799805,81.28094673156738,81.33578300476074,81.78186416625977
1759167160.4310486,1759167160.4331083,91.27426147460938,0.016927719116210938,0.06866455078125,85.03413200378418,85.10279655456543,85.16359329223633,85.90435981750488
1759167160.5228834,1759167160.5360742,87.9676342010498,0.015497207641601562,0.06890296936035156,71.29120826721191,71.36011123657227,71.41232490539551,71.86627388000488
1759167160.611003,1759167160.6124794,94.0091609954834,0.014781951904296875,0.07605552673339844,87.71109580993652,87.78715133666992,87.85057067871094,88.35005760192871
1759167160.7051141,1759167160.7065487,97.01681137084961,0.015974044799804688,0.06866455078125,83.61077308654785,83.6794376373291,83.7259292602539,84.1836929321289
1759167160.8024635,1759167160.8159664,109.38477516174316,0.015020370483398438,0.06771087646484375,91.60518646240234,91.67289733886719,91.7212963104248,92.15998649597168
1759167160.91215,1759167160.9263432,153.1538963317871,0.10895729064941406,0.07510185241699219,58.534860610961914,58.609962463378906,126.0068416595459,131.98542594909668
1759167161.0725927,1759167161.0773718,146.0256576538086,65.19722938537598,0.06270408630371094,63.76075744628906,63.82346153259277,130.2649974822998,131.08205795288086
1759167161.2187576,1759167161.2281525,158.81872177124023,0.10967254638671875,0.06866455078125,64.51582908630371,64.58449363708496,131.12807273864746,131.7920684814453
1759167161.3777325,1759167161.3891776,87.89443969726562,0.015974044799804688,0.07033348083496094,73.17423820495605,73.24457168579102,73.36711883544922,74.0199089050293
1759167161.4657767,1759167161.4713435,110.12983322143555,0.015497207641601562,0.06866455078125,89.19429779052734,89.2629623413086,89.31851387023926,89.77818489074707
1759167161.577992,1759167161.5832305,71.06614112854004,0.014543533325195312,0.06961822509765625,58.35771560668945,58.42733383178711,58.478355407714844,58.93445014953613
1759167161.6493778,1759167161.6688738,91.45426750183105,0.01621246337890625,0.07081031799316406,63.82870674133301,63.89951705932617,64.01467323303223,64.91947174072266
1759167161.7435718,1759167161.74914,83.06527137756348,0.015020370483398438,0.06866455078125,61.19394302368164,61.26260757446289,61.31768226623535,73.84371757507324
1759167161.8267887,1759167161.8350983,94.14935111999512,0.015735626220703125,0.06914138793945312,76.86591148376465,76.9350528717041,76.98178291320801,77.42524147033691
1759167161.9265952,1759167161.928014,107.29646682739258,0.014781951904296875,0.06842613220214844,90.01398086547852,90.08240699768066,90.17372131347656,90.77858924865723
1759167162.034041,1759167162.039114,104.7062873840332,0.014781951904296875,0.06985664367675781,93.25695037841797,93.32680702209473,93.38235855102539,93.83511543273926
1759167162.1426306,1759167162.218154,169.96002197265625,0.034332275390625,0.06818771362304688,80.06572723388672,80.13391494750977,80.21807670593262,85.32404899597168
1759167162.3127425,1759167162.318678,101.1209487915039,0.014781951904296875,0.0667572021484375,77.52323150634766,77.5899887084961,77.63838768005371,78.08780670166016
1759167162.414016,1759167162.4192002,96.61865234375,0.030755996704101562,0.07295608520507812,88.67311477661133,88.7460708618164,88.85431289672852,92.99731254577637
1759167162.5107872,1759167162.5132997,94.84601020812988,0.017881393432617188,0.06604194641113281,89.39480781555176,89.46084976196289,89.52927589416504,90.29960632324219
1759167162.6057858,1759167162.6097553,101.7913818359375,0.018358230590820312,0.06723403930664062,85.10184288024902,85.16907691955566,85.23201942443848,85.97183227539062
1759167162.7076821,1759167162.7184334,131.02126121520996,0.11563301086425781,0.06866455078125,51.70249938964844,51.77116394042969,116.90139770507812,118.7283992767334
1759167162.838845,1759167162.881307,189.2719268798828,66.95985794067383,0.06365776062011719,71.83146476745605,71.89512252807617,138.99755477905273,144.5772647857666
1759167163.0365975,1759167163.1196523,186.31553649902344,0.05650520324707031,0.06651878356933594,87.17584609985352,87.24236488342285,87.38517761230469,100.42047500610352
1759167163.2230217,1759167163.231103,86.212158203125,0.016689300537109375,0.06985664367675781,77.2087574005127,77.27861404418945,77.32844352722168,77.85320281982422
1759167163.309339,1759167163.3107805,91.55988693237305,0.015020370483398438,0.06937980651855469,86.08198165893555,86.1513614654541,86.1976146697998,86.65871620178223
1759167163.4026363,1759167163.4130502,84.99884605407715,0.017881393432617188,0.07104873657226562,64.59522247314453,64.6662712097168,64.72945213317871,65.86885452270508
1759167163.487786,1759167163.500457,91.84384346008301,0.014543533325195312,0.08630752563476562,71.73848152160645,71.82478904724121,71.93875312805176,72.5867748260498
1759167163.5797777,1759167163.5870476,102.08749771118164,0.0152587890625,0.06723403930664062,82.28397369384766,82.3512077331543,82.40628242492676,82.86428451538086
1759167163.6820147,1759167163.684086,102.62751579284668,0.015020370483398438,0.06842613220214844,95.91388702392578,95.98231315612793,96.03071212768555,96.4815616607666
1759167163.7847924,1759167163.7861729,97.10907936096191,0.015020370483398438,0.06699562072753906,89.35832977294922,89.42532539367676,89.47134017944336,89.89858627319336
1759167163.8836374,1759167163.8881123,98.25515747070312,0.015497207641601562,0.06794929504394531,86.56120300292969,86.62915229797363,86.71951293945312,87.32342720031738
1759167163.9820404,1759167163.9870582,104.86030578613281,0.014543533325195312,0.07104873657226562,91.41850471496582,91.48955345153809,91.54415130615234,91.99762344360352
1759167164.0870516,1759167164.092077,111.52505874633789,0.014543533325195312,0.06914138793945312,89.16759490966797,89.23673629760742,89.28537368774414,89.72716331481934
1759167164.1986818,1759167164.2009046,90.94977378845215,0.015497207641601562,0.07104873657226562,85.23368835449219,85.30473709106445,85.35361289978027,85.80541610717773
1759167164.2897804,1759167164.2911623,102.85782814025879,0.015020370483398438,0.07152557373046875,91.17293357849121,91.24445915222168,91.28999710083008,91.72940254211426
1759167164.3927982,1759167164.394218,102.83660888671875,0.013828277587890625,0.08296966552734375,88.02604675292969,88.10901641845703,88.15431594848633,88.59372138977051
1759167164.4957848,1759167164.4971704,96.24385833740234,0.014781951904296875,0.07224082946777344,91.46428108215332,91.5365219116211,91.58205986022949,92.01598167419434
1759167164.592183,1759167164.5935767,97.71108627319336,0.015020370483398438,0.07104873657226562,91.97998046875,92.05102920532227,92.09680557250977,92.53382682800293
1759167164.6936378,1759167164.6981032,98.99425506591797,0.0152587890625,0.07033348083496094,88.42730522155762,88.49763870239258,88.54222297668457,88.97757530212402
1759167164.7927814,1759167164.800097,103.92999649047852,0.014781951904296875,0.07510185241699219,88.59753608703613,88.67263793945312,88.71865272521973,89.15019035339355
1759167164.8968625,1759167164.898305,97.03874588012695,0.015020370483398438,0.0705718994140625,89.29181098937988,89.36238288879395,89.41173553466797,89.88261222839355
1759167164.9940495,1759167164.9990814,100.58426856994629,0.015497207641601562,0.06961822509765625,93.23692321777344,93.3065414428711,93.35565567016602,93.80984306335449
1759167165.0947833,1759167165.1010795,96.69232368469238,0.015020370483398438,0.07462501525878906,89.50209617614746,89.57672119140625,89.62202072143555,90.05451202392578
1759167165.1915812,1759167165.1930091,101.59039497375488,0.014543533325195312,0.07009506225585938,86.25197410583496,86.32206916809082,86.36736869812012,86.82990074157715
1759167165.2932737,1759167165.294674,93.35970878601074,0.015020370483398438,0.06937980651855469,87.39471435546875,87.4640941619873,87.5093936920166,87.94641494750977
1759167165.3867846,1759167165.3961213,106.29987716674805,0.015497207641601562,0.06961822509765625,86.30037307739258,86.36999130249023,86.41600608825684,86.84849739074707
1759167165.4964147,1759167165.5010612,103.21688652038574,0.014543533325195312,0.0705718994140625,90.96956253051758,91.04013442993164,91.08543395996094,91.51172637939453
1759167165.599781,1759167165.6071138,91.85028076171875,0.0152587890625,0.06961822509765625,78.55653762817383,78.62615585327148,78.67050170898438,79.09798622131348
1759167165.6956356,1759167165.6991851,87.9967212677002,0.016450881958007812,0.07462501525878906,77.40998268127441,77.4846076965332,77.54302024841309,78.02057266235352
1759167165.7847753,1759167165.7861614,94.26045417785645,0.015020370483398438,0.06961822509765625,88.47165107727051,88.54126930236816,88.58752250671387,89.01786804199219
1759167165.8806367,1759167165.8856473,104.57539558410645,0.015735626220703125,0.07390975952148438,80.75094223022461,80.8248519897461,91.88628196716309,92.3302173614502
1759167165.9853644,1759167165.9900575,93.66083145141602,0.014781951904296875,0.06985664367675781,82.88931846618652,82.95917510986328,83.00471305847168,83.44030380249023
1759167166.0791712,1759167166.0806131,71.46072387695312,0.015974044799804688,0.06794929504394531,64.02134895324707,64.08929824829102,64.13626670837402,64.59808349609375
1759167166.1507835,1759167166.1556966,82.93890953063965,0.016689300537109375,0.07128715515136719,66.40338897705078,66.47467613220215,66.5285587310791,67.08526611328125
1759167166.23387,1759167166.2352972,77.7888298034668,0.015020370483398438,0.06985664367675781,72.90387153625488,72.97372817993164,73.01878929138184,73.47846031188965
1759167166.3155973,1759167166.3201764,53.360700607299805,0.015020370483398438,0.06866455078125,38.18058967590332,38.24925422668457,38.29765319824219,42.733192443847656
1759167166.3691032,1759167166.3752046,72.9217529296875,0.0152587890625,0.06818771362304688,60.82892417907715,60.897111892700195,60.94789505004883,61.40708923339844
1759167166.449592,1759167166.4543912,118.49379539489746,50.77362060546875,0.06413459777832031,52.3679256439209,52.43206024169922,103.33871841430664,111.69815063476562
1759167166.572645,1759167166.5812836,137.20345497131348,0.10943412780761719,0.07295608520507812,51.555633544921875,51.62858963012695,120.09525299072266,120.76473236083984
1759167166.7175927,1759167166.7223902,142.0419216156006,68.13883781433105,0.06508827209472656,62.84642219543457,62.9115104675293,131.1948299407959,132.04574584960938
1759167166.8597906,1759167166.8692837,119.90666389465332,0.10991096496582031,0.06961822509765625,58.92133712768555,58.9909553527832,108.38556289672852,109.04693603515625
1759167166.9798417,1759167167.0577893,153.73468399047852,0.033855438232421875,0.06771087646484375,69.76437568664551,69.83208656311035,69.9155330657959,71.19226455688477
1759167167.1337361,1759167167.1371338,70.57332992553711,0.015020370483398438,0.06985664367675781,63.51494789123535,63.58480453491211,63.63654136657715,64.07666206359863
1759167167.2056358,1759167167.214143,111.94682121276855,0.0171661376953125,0.07009506225585938,89.3549919128418,89.42508697509766,89.48183059692383,93.6288833618164
1759167167.3177369,1759167167.3320286,94.11168098449707,0.014781951904296875,0.06985664367675781,66.21241569519043,66.28227233886719,66.38741493225098,67.01970100402832
1759167167.4119961,1759167167.4243896,111.57989501953125,0.015020370483398438,0.06842613220214844,85.85810661315918,85.92653274536133,85.98089218139648,86.42005920410156
1759167167.5275962,1759167167.536982,98.30856323242188,0.0152587890625,0.06842613220214844,88.01937103271484,88.08779716491699,88.14072608947754,88.58633041381836
1759167167.6276357,1759167167.634423,99.3802547454834,0.014781951904296875,0.0782012939453125,84.62905883789062,84.70726013183594,84.75422859191895,85.1898193359375
1759167167.7271593,1759167167.7286174,99.73287582397461,0.0152587890625,0.07104873657226562,91.26400947570801,91.33505821228027,91.38226509094238,91.84932708740234
1759167167.82704,1759167167.837258,102.89239883422852,0.018358230590820312,0.06771087646484375,86.18402481079102,86.25173568725586,86.31587028503418,87.05925941467285
1759167167.9301147,1759167167.9401011,99.2734432220459,0.015020370483398438,0.06961822509765625,88.39845657348633,88.46807479858398,88.51432800292969,88.93823623657227
1759167168.0296605,1759167168.0351324,106.77504539489746,0.0152587890625,0.07033348083496094,90.70730209350586,90.77763557434082,90.83008766174316,91.28665924072266
1759167168.1366165,1759167168.138624,97.59712219238281,0.017881393432617188,0.07081031799316406,84.59591865539551,84.66672897338867,84.73515510559082,95.53074836730957
1759167168.2344754,1759167168.2480023,97.43666648864746,0.015020370483398438,0.07033348083496094,80.28459548950195,80.35492897033691,80.40380477905273,80.87015151977539
1759167168.3355942,1759167168.338085,90.35825729370117,0.015020370483398438,0.06866455078125,75.70505142211914,75.77371597290039,75.81925392150879,80.87849617004395
1759167168.4260972,1759167168.4339812,94.92945671081543,0.014781951904296875,0.06842613220214844,81.19392395019531,81.26235008239746,81.31647109985352,81.76660537719727
1759167168.5286305,1759167168.530016,89.00117874145508,0.015735626220703125,0.06914138793945312,81.01487159729004,81.08401298522949,81.1307430267334,81.56561851501465
1759167168.6177838,1759167168.6191952,65.99879264831543,0.0152587890625,0.06914138793945312,61.274051666259766,61.34319305419922,61.388254165649414,61.820268630981445
1759167168.683927,1759167168.6890597,93.70827674865723,0.0152587890625,0.07009506225585938,74.89776611328125,74.96786117553711,75.02293586730957,75.47593116760254
1759167168.7777855,1759167168.7830868,106.84657096862793,0.014781951904296875,0.07009506225585938,93.63627433776855,93.70636940002441,93.75691413879395,94.20537948608398
1759167168.8847828,1759167168.8900785,108.85071754455566,0.01430511474609375,0.06985664367675781,96.38285636901855,96.45271301269531,96.50182723999023,96.94552421569824
1759167168.993786,1759167169.0042548,98.8461971282959,0.017881393432617188,0.06961822509765625,85.95442771911621,86.02404594421387,86.0908031463623,86.93289756774902
1759167169.096636,1759167169.1076565,103.21164131164551,0.03314018249511719,0.06866455078125,82.7639102935791,82.83257484436035,82.94343948364258,91.67671203613281
1759167169.2026365,1759167169.2070599,97.37730026245117,0.015735626220703125,0.06818771362304688,88.25898170471191,88.32716941833496,88.3779525756836,88.81998062133789
1759167169.3026462,1759167169.3112166,146.8832492828369,0.024080276489257812,0.07200241088867188,62.68024444580078,62.75224685668945,62.97445297241211,138.01169395446777
1759167169.452598,1759167169.4656065,82.03530311584473,0.015974044799804688,0.07033348083496094,66.78247451782227,66.85280799865723,66.91598892211914,67.38805770874023
1759167169.5347826,1759167169.5400615,78.32932472229004,0.015497207641601562,0.0705718994140625,56.587934494018555,56.65850639343262,56.71381950378418,57.166099548339844
1759167169.6132565,1759167169.6404266,155.61318397521973,41.69869422912598,0.06341934204101562,41.12982749938965,41.193246841430664,121.5670108795166,126.68418884277344
1759167169.7766366,1759167169.7829854,63.21549415588379,0.016927719116210938,0.07534027099609375,45.97330093383789,46.048641204833984,46.16522789001465,46.87952995300293
1759167169.8436844,1759167169.8480554,78.96780967712402,0.014781951904296875,0.06914138793945312,61.096906661987305,61.16604804992676,61.217546463012695,61.65122985839844
1759167169.922799,1759167169.9300802,99.17187690734863,0.014781951904296875,0.06771087646484375,84.19203758239746,84.2597484588623,84.30862426757812,84.75875854492188
1759167170.022093,1759167170.0240898,104.53462600708008,0.014781951904296875,0.07271766662597656,95.62253952026367,95.69525718688965,95.75033187866211,96.20094299316406
1759167170.1267774,1759167170.1281283,92.72980690002441,0.015020370483398438,0.06794929504394531,83.79292488098145,83.86087417602539,83.91308784484863,84.34939384460449
1759167170.219611,1759167170.2211254,98.02079200744629,0.015020370483398438,0.06818771362304688,90.78764915466309,90.85583686828613,90.91567993164062,91.40563011169434
1759167170.3177822,1759167170.3196383,98.07109832763672,0.017642974853515625,0.06842613220214844,89.90478515625,89.97321128845215,90.03758430480957,90.81292152404785
1759167170.4191291,1759167170.4221268,99.44820404052734,0.015497207641601562,0.06937980651855469,88.8068675994873,88.87624740600586,88.92607688903809,89.37478065490723
1759167170.5187862,1759167170.524083,107.84602165222168,0.014543533325195312,0.06890296936035156,94.25783157348633,94.32673454284668,94.37441825866699,94.82908248901367
1759167170.6267848,1759167170.6297004,104.8269271850586,0.014543533325195312,0.07033348083496094,87.96501159667969,88.03534507751465,88.08326721191406,88.55223655700684
1759167170.731762,1759167170.7331526,85.44683456420898,0.01430511474609375,0.06914138793945312,83.16946029663086,83.23860168457031,83.2829475402832,83.72020721435547
1759167170.8173547,1759167170.8188033,100.99649429321289,0.01430511474609375,0.06961822509765625,89.48206901550293,89.55168724060059,89.599609375,98.0985164642334
1759167170.920591,1759167170.9309769,104.44784164428711,0.015020370483398438,0.06771087646484375,82.98587799072266,83.0535888671875,83.0988883972168,83.53757858276367
1759167171.0251873,1759167171.0296674,99.38621520996094,0.0209808349609375,0.06723403930664062,86.14611625671387,86.21335029602051,86.26818656921387,89.76268768310547
1759167171.1253514,1759167171.1337624,100.10766983032227,0.015497207641601562,0.06890296936035156,89.78939056396484,89.8582935333252,89.9043083190918,90.34991264343262
1759167171.2255838,1759167171.2818792,201.99179649353027,0.12636184692382812,0.072479248046875,63.47155570983887,63.54403495788574,135.82348823547363,140.39111137390137
1759167171.427728,1759167171.4851458,153.80167961120605,0.038623809814453125,0.06842613220214844,88.78731727600098,88.85574340820312,88.93656730651855,93.72591972351074
1759167171.5830994,1759167171.587975,48.11525344848633,0.03504753112792969,0.07104873657226562,20.89834213256836,20.969390869140625,21.138429641723633,22.563934326171875
1759167171.6313684,1759167171.6399822,58.20465087890625,0.014781951904296875,0.06771087646484375,46.48137092590332,46.549081802368164,46.602487564086914,47.05643653869629
1759167171.689727,1759167171.697185,76.12466812133789,0.01621246337890625,0.09489059448242188,59.89861488342285,59.99350547790527,60.04834175109863,60.57453155517578
1759167171.766001,1759167171.7710695,71.84815406799316,0.014781951904296875,0.06842613220214844,60.27817726135254,60.34660339355469,60.40167808532715,60.851335525512695
1759167171.8379483,1759167171.8424056,89.07103538513184,0.015020370483398438,0.07200241088867188,80.55424690246582,80.62624931335449,80.68227767944336,81.14004135131836
1759167171.9306366,1759167171.9340782,105.24916648864746,0.014543533325195312,0.07200241088867188,100.84152221679688,100.91352462768555,100.96263885498047,101.43303871154785
1759167172.0360317,1759167172.037457,96.1458683013916,0.015020370483398438,0.07915496826171875,85.27755737304688,85.3567123413086,85.40463447570801,85.8612060546875
1759167172.1334467,1759167172.134882,94.87485885620117,0.01430511474609375,0.07605552673339844,92.55075454711914,92.62681007385254,92.67091751098633,93.12081336975098
1759167172.2284687,1759167172.2299194,94.16460990905762,0.015497207641601562,0.0705718994140625,86.83633804321289,86.90690994262695,86.95816993713379,87.42451667785645
1759167172.3246348,1759167172.326025,93.99867057800293,0.014543533325195312,0.0705718994140625,86.78507804870605,86.85564994812012,86.90214157104492,87.33677864074707
1759167172.4206376,1759167172.422045,106.99272155761719,0.015020370483398438,0.07104873657226562,93.88089179992676,93.95194053649902,94.00057792663574,94.43306922912598
1759167172.527783,1759167172.533233,112.05840110778809,0.014543533325195312,0.07033348083496094,95.2904224395752,95.36075592041016,95.40772438049316,95.8549976348877
1759167172.6426325,1759167172.6482446,135.39958000183105,61.15126609802246,0.06413459777832031,60.80293655395508,60.8670711517334,122.15065956115723,125.64373016357422
1759167172.7781634,1759167172.792205,151.38792991638184,0.11134147644042969,0.07033348083496094,59.04984474182129,59.12017822265625,123.0323314666748,123.74091148376465
1759167172.9306457,1759167172.9426494,81.64143562316895,0.017404556274414062,0.06723403930664062,68.46022605895996,68.5274600982666,68.64237785339355,69.33212280273438
1759167173.014642,1759167173.0194032,96.65155410766602,0.0152587890625,0.0705718994140625,87.7690315246582,87.83960342407227,87.89563179016113,88.35697174072266
1759167173.1146362,1759167173.1160333,93.9946174621582,0.015497207641601562,0.10061264038085938,88.20533752441406,88.30595016479492,88.35315704345703,88.79780769348145
1759167173.2087822,1759167173.2141044,104.79140281677246,0.015020370483398438,0.07009506225585938,93.52350234985352,93.59359741210938,93.6422348022461,94.0849781036377
1759167173.3164234,1759167173.3200545,97.2135066986084,0.015020370483398438,0.06771087646484375,80.40523529052734,80.47294616699219,80.52206039428711,80.95121383666992
1759167173.4170408,1759167173.420615,100.34966468811035,0.015020370483398438,0.06985664367675781,95.88479995727539,95.95465660095215,96.00019454956055,96.46129608154297
1759167173.5175421,1759167173.5240452,97.40853309631348,0.01430511474609375,0.06842613220214844,87.52012252807617,87.58854866027832,87.63337135314941,88.06395530700684
1759167173.6150975,1759167173.6165402,97.47958183288574,0.0152587890625,0.06890296936035156,90.15774726867676,90.22665023803711,90.27433395385742,90.75140953063965
1759167173.7126822,1759167173.716126,100.20065307617188,0.014066696166992188,0.06985664367675781,79.1168212890625,79.18667793273926,79.23150062561035,79.67185974121094
1759167173.8147104,1759167173.8232372,143.63741874694824,0.024080276489257812,0.06794929504394531,65.72937965393066,65.79732894897461,66.01405143737793,134.93967056274414
1759167173.9632807,1759167173.9800642,115.6308650970459,0.01621246337890625,0.07271766662597656,90.03734588623047,90.11006355285645,90.1648998260498,90.75736999511719
1759167174.0790534,1759167174.1033733,148.03218841552734,87.72468566894531,0.07152557373046875,33.34784507751465,33.41937065124512,121.3829517364502,123.36421012878418
1759167174.2272239,1759167174.246659,147.83239364624023,0.2040863037109375,0.08654594421386719,38.942575454711914,39.02912139892578,116.1961555480957,117.17700958251953
1759167174.3752198,1759167174.3802042,48.888444900512695,0.017642974853515625,0.07367134094238281,42.673349380493164,42.74702072143555,42.86360740661621,43.59078407287598
1759167174.4266381,1759167174.4320009,68.31145286560059,0.015497207641601562,0.07462501525878906,58.28428268432617,58.35890769958496,58.4104061126709,58.87246131896973
1759167174.4957862,1759167174.5008624,48.29883575439453,0.017881393432617188,0.07176399230957031,38.36417198181152,38.435935974121094,38.56635093688965,39.65425491333008
1759167174.5456362,1759167174.553161,73.34494590759277,0.020265579223632812,0.08273124694824219,56.867361068725586,56.95009231567383,57.0073127746582,57.58976936340332
1759167174.6191266,1759167174.626086,86.4870548248291,0.015735626220703125,0.07009506225585938,68.49193572998047,68.56203079223633,68.6185359954834,69.08130645751953
1759167174.7061527,1759167174.719351,138.46874237060547,0.11086463928222656,0.10561943054199219,55.43160438537598,55.53722381591797,115.64779281616211,116.34564399719238
1759167174.8447583,1759167174.8461473,68.21203231811523,0.015497207641601562,0.06842613220214844,53.92265319824219,53.991079330444336,54.10480499267578,55.48405647277832
1759167174.916635,1759167174.9204884,65.99736213684082,0.0209808349609375,0.07581710815429688,59.384822845458984,59.46063995361328,59.52048301696777,59.97109413146973
1759167174.9827826,1759167174.9884546,97.92041778564453,0.01621246337890625,0.08440017700195312,83.5123062133789,83.59670639038086,83.69755744934082,84.3513011932373
1759167175.0846384,1759167175.104983,91.07494354248047,0.015735626220703125,0.06914138793945312,62.53671646118164,62.605857849121094,62.66164779663086,63.11964988708496
1759167175.175814,1759167175.1772444,81.46214485168457,0.015020370483398438,0.06842613220214844,66.37334823608398,66.44177436828613,66.48707389831543,66.9405460357666
1759167175.2575514,1759167175.3283374,162.47129440307617,0.034809112548828125,0.06651878356933594,86.94100379943848,87.00752258300781,87.08786964416504,93.20259094238281
1759167175.4207208,1759167175.4349384,79.33497428894043,0.016927719116210938,0.06842613220214844,59.96894836425781,60.03737449645996,60.14394760131836,60.81032752990723
1759167175.5015895,1759167175.5061657,99.36928749084473,0.015735626220703125,0.07009506225585938,80.99055290222168,81.06064796447754,81.11572265625,81.58063888549805
1759167175.6046371,1759167175.609105,82.39412307739258,0.014781951904296875,0.06866455078125,68.08018684387207,68.14885139465332,68.20034980773926,68.63188743591309
1759167175.6886346,1759167175.694055,76.99704170227051,0.0152587890625,0.06842613220214844,68.54844093322754,68.61686706542969,68.66240501403809,69.09704208374023
1759167175.765734,1759167175.7707243,92.83971786499023,0.015497207641601562,0.07128715515136719,73.93264770507812,74.00393486022949,74.05972480773926,74.52726364135742
1759167175.8587222,1759167175.8630588,85.90960502624512,0.014781951904296875,0.06961822509765625,73.06528091430664,73.1348991394043,73.1816291809082,73.62008094787598
1759167175.944781,1759167175.9550583,77.98480987548828,0.015735626220703125,0.06914138793945312,59.01050567626953,59.079647064208984,59.18407440185547,65.84477424621582
1759167176.0246348,1759167176.0290582,102.93960571289062,0.015020370483398438,0.06961822509765625,92.47899055480957,92.54860877990723,92.61178970336914,93.10054779052734
1759167176.1277282,1759167176.1294298,95.91031074523926,0.015735626220703125,0.07605552673339844,87.55087852478027,87.62693405151367,87.69059181213379,88.37413787841797
1759167176.2256384,1759167176.2311049,101.37462615966797,0.01430511474609375,0.07700920104980469,91.95733070373535,92.03433990478516,92.08011627197266,92.51189231872559
1759167176.327159,1759167176.3321514,108.76703262329102,0.015735626220703125,0.06937980651855469,96.16279602050781,96.23217582702637,96.28081321716309,103.45268249511719
1759167176.4375956,1759167176.4530208,103.25050354003906,0.015735626220703125,0.07033348083496094,73.84800910949707,73.91834259033203,73.97031784057617,74.4471549987793
1759167176.5465932,1759167176.5518868,135.03503799438477,0.024318695068359375,0.07152557373046875,55.12356758117676,55.19509315490723,55.40728569030762,125.53167343139648
1759167176.6871185,1759167176.696971,89.51377868652344,0.015020370483398438,0.06937980651855469,69.95558738708496,70.02496719360352,70.07551193237305,70.50967216491699
1759167176.7856364,1759167176.7903035,99.00903701782227,0.11134147644042969,0.06937980651855469,42.94013977050781,43.00951957702637,76.83205604553223,77.50582695007324
1759167176.884792,1759167176.8901052,73.8832950592041,0.0152587890625,0.06771087646484375,65.85192680358887,65.91963768005371,65.97304344177246,66.4517879486084
1759167176.960282,1759167176.9719636,100.92043876647949,0.01621246337890625,0.06628036499023438,83.62436294555664,83.69064331054688,83.78243446350098,84.39135551452637
1759167177.0640268,1759167177.0811105,82.08823204040527,0.016450881958007812,0.06890296936035156,63.83705139160156,63.905954360961914,64.01729583740234,64.73350524902344
1759167177.1462612,1759167177.2207997,145.7672119140625,0.03528594970703125,0.06842613220214844,62.27517127990723,62.343597412109375,62.42847442626953,71.11001014709473
1759167177.292177,1759167177.2995305,73.45700263977051,0.0152587890625,0.06961822509765625,58.11905860900879,58.188676834106445,58.23969841003418,58.68172645568848
1759167177.365787,1759167177.3711743,73.84729385375977,0.01621246337890625,0.07033348083496094,64.85247611999512,64.92280960083008,65.0026798248291,65.44208526611328
1759167177.439787,1759167177.4450626,72.78656959533691,0.015735626220703125,0.06842613220214844,61.048030853271484,61.11645698547363,61.16795539855957,61.61236763000488
1759167177.5146346,1759167177.521624,74.3856430053711,0.015020370483398438,0.07104873657226562,63.1403923034668,63.21144104003906,63.2624626159668,63.71021270751953
1759167177.589167,1759167177.596997,79.80465888977051,0.01621246337890625,0.06914138793945312,62.40415573120117,62.473297119140625,62.53170967102051,62.97874450683594
1759167177.6698198,1759167177.6855593,85.8163833618164,0.015735626220703125,0.07009506225585938,67.9483413696289,68.01843643188477,68.07231903076172,68.51744651794434
1759167177.7557406,1759167177.76295,65.89007377624512,0.015020370483398438,0.07200241088867188,52.529096603393555,52.60109901428223,52.65474319458008,53.10654640197754
1759167177.8217819,1759167177.831659,75.8507251739502,0.015974044799804688,0.06985664367675781,63.49301338195801,63.562870025634766,63.61889839172363,64.11457061767578
1759167177.8977816,1759167177.9030674,69.35310363769531,0.0152587890625,0.06985664367675781,55.13119697570801,55.201053619384766,55.2515983581543,55.693626403808594
1759167177.9672818,1759167177.9738336,102.2944450378418,0.015497207641601562,0.06842613220214844,87.93830871582031,88.00673484802246,88.05274963378906,88.48690986633301
1759167178.0697284,1759167178.0711033,95.90697288513184,0.015020370483398438,0.06866455078125,86.14802360534668,86.21668815612793,86.26317977905273,86.7002010345459
1759167178.1657908,1759167178.1700952,106.22954368591309,0.01811981201171875,0.06866455078125,83.90164375305176,83.97030830383301,84.03944969177246,84.81192588806152
1759167178.275594,1759167178.280482,99.04026985168457,0.015497207641601562,0.07534027099609375,88.3021354675293,88.37747573852539,88.42706680297852,88.87600898742676
1759167178.3747396,1759167178.3761423,93.89400482177734,0.015497207641601562,0.06961822509765625,88.22941780090332,88.29903602600098,88.34576606750488,88.78779411315918
1759167178.472638,1759167178.476102,100.9976863861084,0.015020370483398438,0.06914138793945312,89.47539329528809,89.54453468322754,89.59078788757324,90.02542495727539
1759167178.573787,1759167178.5773747,99.67684745788574,0.017404556274414062,0.06699562072753906,91.4468765258789,91.51387214660645,91.58158302307129,92.32068061828613
1759167178.6740227,1759167178.6791103,102.9813289642334,0.01621246337890625,0.06842613220214844,92.52786636352539,92.59629249572754,92.69452095031738,93.29938888549805
1759167178.7796373,1759167178.7810335,87.03160285949707,0.015497207641601562,0.06866455078125,81.64334297180176,81.71200752258301,81.76469802856445,82.19528198242188
1759167178.866833,1759167178.8683555,95.74341773986816,0.0152587890625,0.07152557373046875,87.72945404052734,87.80097961425781,87.86821365356445,88.3948802947998
1759167178.962733,1759167178.9702704,100.04138946533203,0.017642974853515625,0.06937980651855469,86.00735664367676,86.07673645019531,86.12823486328125,86.69400215148926
1759167179.0676463,1759167179.0742035,145.5667018890381,0.19884109497070312,0.06985664367675781,63.9185905456543,63.988447189331055,64.3918514251709,132.90166854858398
1759167179.216635,1759167179.226075,77.98910140991211,0.014543533325195312,0.06937980651855469,65.86480140686035,65.9341812133789,66.04671478271484,66.67232513427734
1759167179.2947724,1759167179.303131,109.59720611572266,0.014781951904296875,0.07104873657226562,100.31604766845703,100.3870964050293,100.44145584106445,100.89802742004395
1759167179.407638,1759167179.412126,103.08718681335449,0.014781951904296875,0.06961822509765625,84.98144149780273,85.05105972290039,85.09588241577148,85.53171157836914
1759167179.5141976,1759167179.5193791,105.6973934173584,0.0152587890625,0.1266002655029297,96.8329906463623,96.95959091186523,97.05615043640137,97.70417213439941
1759167179.6236558,1759167179.6281059,96.97222709655762,0.015020370483398438,0.06961822509765625,87.85319328308105,87.92281150817871,88.01794052124023,88.61422538757324
1759167179.7207286,1759167179.733981,105.90553283691406,0.014543533325195312,0.07176399230957031,77.4240493774414,77.49581336975098,89.57839012145996,90.03496170043945
1759167179.8267856,1759167179.8320875,101.7913818359375,0.014781951904296875,0.07033348083496094,89.6921157836914,89.76244926452637,89.80774879455566,90.24238586425781
1759167179.928731,1759167179.9333348,94.84410285949707,0.015020370483398438,0.06914138793945312,84.36894416809082,84.43808555603027,84.48338508605957,84.91110801696777
1759167180.023729,1759167180.0251143,106.84728622436523,0.015020370483398438,0.06985664367675781,97.84531593322754,97.9151725769043,97.96428680419922,98.41012954711914
